# OpenSignals Text File Format. Version 1
# {"00:07:80:0F:30:67": {"position": 0, "device": "biosignalspluxsolo", "device name": "00:07:80:0F:30:67", "device connection": "BTH00:07:80:0F:30:67", "sampling rate": 1000, "resolution": [16], "firmware version": 257, "comments": "", "keywords": "", "mode": 0, "sync interval": 2, "date": "2025-3-21", "time": "10:56:42.107", "channels": [1], "sensor": ["MICRO"], "label": ["MICRO"], "column": ["nSeq", "DI", "MICRO"], "special": [{}], "digital IO": [0, 1]}}
# EndOfHeader
0	0	32626	
1	0	32876	
2	0	32726	
3	0	32870	
4	0	32836	
5	0	32832	
6	0	32895	
7	0	32852	
8	0	33023	
9	0	32644	
10	0	32850	
11	0	32691	
12	0	32962	
13	0	32836	
14	0	32822	
15	0	32920	
16	0	32843	
17	0	33044	
18	0	32628	
19	0	32912	
20	0	32768	
21	0	32854	
22	0	32800	
23	0	32820	
24	0	32942	
25	0	32872	
26	0	32910	
27	0	32657	
28	0	32764	
29	0	32824	
30	0	32750	
31	0	32892	
32	0	32816	
33	0	32839	
34	0	32824	
35	0	32876	
36	0	32836	
37	0	32638	
38	0	32956	
39	0	32796	
40	0	32886	
41	0	32791	
42	0	32848	
43	0	32822	
44	0	32864	
45	0	32954	
46	0	32717	
47	0	32864	
48	0	32832	
49	0	32794	
50	0	32808	
51	0	32738	
52	0	32914	
53	0	32836	
54	0	32944	
55	0	32840	
56	0	32754	
57	0	32822	
58	0	32780	
59	0	32778	
60	0	32764	
61	0	32858	
62	0	32912	
63	0	32896	
64	0	32936	
65	0	32716	
66	0	32780	
67	0	32816	
68	0	32851	
69	0	32744	
70	0	32822	
71	0	32940	
72	0	32944	
73	0	32999	
74	0	32748	
75	0	32710	
76	0	32837	
77	0	32804	
78	0	32760	
79	0	32791	
80	0	32917	
81	0	32910	
82	0	32910	
83	0	32758	
84	0	32714	
85	0	32804	
86	0	32837	
87	0	32804	
88	0	32791	
89	0	32872	
90	0	32920	
91	0	32928	
92	0	32776	
93	0	32640	
94	0	32792	
95	0	32828	
96	0	32806	
97	0	32818	
98	0	32852	
99	0	32924	
100	0	32896	
101	0	32836	
102	0	32648	
103	0	32784	
104	0	32822	
105	0	32786	
106	0	32822	
107	0	32866	
108	0	32886	
109	0	32890	
110	0	32820	
111	0	32742	
112	0	32780	
113	0	32816	
114	0	32800	
115	0	32882	
116	0	32848	
117	0	32864	
118	0	32852	
119	0	32862	
120	0	32788	
121	0	32810	
122	0	32838	
123	0	32800	
124	0	32808	
125	0	32872	
126	0	32836	
127	0	32888	
128	0	32674	
129	0	32870	
130	0	32876	
131	0	32815	
132	0	32818	
133	0	32816	
134	0	32920	
135	0	32858	
136	0	32904	
137	0	32718	
138	0	32866	
139	0	32832	
140	0	32806	
141	0	32824	
142	0	32828	
143	0	32885	
144	0	32872	
145	0	32864	
146	0	32757	
147	0	32728	
148	0	32896	
149	0	32783	
150	0	32836	
151	0	32775	
152	0	32883	
153	0	32910	
154	0	32902	
155	0	32900	
156	0	32660	
157	0	32883	
158	0	32786	
159	0	32848	
160	0	32742	
161	0	32912	
162	0	32942	
163	0	32888	
164	0	32864	
165	0	32720	
166	0	32880	
167	0	32847	
168	0	32793	
169	0	32780	
170	0	32800	
171	0	32943	
172	0	32931	
173	0	32874	
174	0	32776	
175	0	32736	
176	0	32887	
177	0	32824	
178	0	32790	
179	0	32796	
180	0	32872	
181	0	32992	
182	0	32864	
183	0	32820	
184	0	32726	
185	0	32772	
186	0	32832	
187	0	32824	
188	0	32830	
189	0	32828	
190	0	32904	
191	0	32896	
192	0	32844	
193	0	32708	
194	0	32744	
195	0	32812	
196	0	32803	
197	0	32854	
198	0	32818	
199	0	32844	
200	0	32904	
201	0	32903	
202	0	32742	
203	0	32746	
204	0	32814	
205	0	32828	
206	0	32928	
207	0	32856	
208	0	32831	
209	0	32858	
210	0	32868	
211	0	32768	
212	0	32769	
213	0	32824	
214	0	32768	
215	0	32832	
216	0	32884	
217	0	32836	
218	0	32824	
219	0	32858	
220	0	32808	
221	0	32792	
222	0	32820	
223	0	32750	
224	0	32808	
225	0	32885	
226	0	32912	
227	0	32852	
228	0	32838	
229	0	32864	
230	0	32796	
231	0	32864	
232	0	32798	
233	0	32784	
234	0	32792	
235	0	32936	
236	0	32928	
237	0	32838	
238	0	32816	
239	0	32792	
240	0	32848	
241	0	32800	
242	0	32782	
243	0	32772	
244	0	32877	
245	0	32954	
246	0	32871	
247	0	32708	
248	0	32788	
249	0	32844	
250	0	32864	
251	0	32800	
252	0	32820	
253	0	32828	
254	0	32944	
255	0	32880	
256	0	32718	
257	0	32708	
258	0	32781	
259	0	32778	
260	0	32751	
261	0	32816	
262	0	32907	
263	0	32912	
264	0	32932	
265	0	32724	
266	0	32676	
267	0	32848	
268	0	32831	
269	0	32802	
270	0	32844	
271	0	32854	
272	0	32904	
273	0	32896	
274	0	32724	
275	0	32752	
276	0	32812	
277	0	32756	
278	0	32777	
279	0	32887	
280	0	32868	
281	0	32956	
282	0	32896	
283	0	32628	
284	0	32794	
285	0	32815	
286	0	32832	
287	0	32760	
288	0	32864	
289	0	32896	
290	0	32954	
291	0	32872	
292	0	32657	
293	0	32848	
294	0	32768	
295	0	32820	
296	0	32784	
297	0	32851	
298	0	32872	
299	0	32958	
300	0	32902	
301	0	32741	
302	0	32778	
303	0	32794	
304	0	32810	
305	0	32796	
306	0	32892	
307	0	32926	
308	0	32932	
309	0	32856	
310	0	32639	
311	0	32852	
312	0	32810	
313	0	32872	
314	0	32810	
315	0	32839	
316	0	32976	
317	0	32900	
318	0	32748	
319	0	32628	
320	0	32888	
321	0	32796	
322	0	32892	
323	0	32806	
324	0	32834	
325	0	32934	
326	0	32898	
327	0	32726	
328	0	32664	
329	0	32791	
330	0	32806	
331	0	32894	
332	0	32810	
333	0	32882	
334	0	32948	
335	0	32884	
336	0	32802	
337	0	32693	
338	0	32816	
339	0	32784	
340	0	32815	
341	0	32852	
342	0	32803	
343	0	32900	
344	0	32826	
345	0	32836	
346	0	32790	
347	0	32774	
348	0	32800	
349	0	32854	
350	0	32815	
351	0	32872	
352	0	32890	
353	0	32844	
354	0	32852	
355	0	32776	
356	0	32804	
357	0	32784	
358	0	32824	
359	0	32793	
360	0	32856	
361	0	32928	
362	0	32903	
363	0	32810	
364	0	32850	
365	0	32814	
366	0	32842	
367	0	32810	
368	0	32788	
369	0	32784	
370	0	32872	
371	0	32856	
372	0	32836	
373	0	32822	
374	0	32784	
375	0	32832	
376	0	32824	
377	0	32812	
378	0	32824	
379	0	32853	
380	0	32864	
381	0	32856	
382	0	32836	
383	0	32816	
384	0	32866	
385	0	32768	
386	0	32796	
387	0	32842	
388	0	32822	
389	0	32852	
390	0	32872	
391	0	32832	
392	0	32788	
393	0	32880	
394	0	32730	
395	0	32754	
396	0	32832	
397	0	32880	
398	0	32816	
399	0	32815	
400	0	32935	
401	0	32796	
402	0	32756	
403	0	32823	
404	0	32892	
405	0	32812	
406	0	32832	
407	0	32878	
408	0	32773	
409	0	32790	
410	0	32874	
411	0	32864	
412	0	32728	
413	0	32864	
414	0	32948	
415	0	32826	
416	0	32824	
417	0	32926	
418	0	32788	
419	0	32783	
420	0	32884	
421	0	32844	
422	0	32756	
423	0	32820	
424	0	32894	
425	0	32830	
426	0	32772	
427	0	32882	
428	0	32732	
429	0	32704	
430	0	32872	
431	0	32900	
432	0	32792	
433	0	32800	
434	0	32916	
435	0	32874	
436	0	32796	
437	0	32839	
438	0	32792	
439	0	32746	
440	0	32880	
441	0	32884	
442	0	32775	
443	0	32820	
444	0	32888	
445	0	32794	
446	0	32772	
447	0	32864	
448	0	32860	
449	0	32720	
450	0	32817	
451	0	32908	
452	0	32834	
453	0	32714	
454	0	32820	
455	0	32848	
456	0	32770	
457	0	32821	
458	0	32868	
459	0	32767	
460	0	32871	
461	0	32884	
462	0	32816	
463	0	32738	
464	0	32854	
465	0	32962	
466	0	32796	
467	0	32830	
468	0	32880	
469	0	32836	
470	0	32802	
471	0	32836	
472	0	32886	
473	0	32692	
474	0	32772	
475	0	32864	
476	0	32872	
477	0	32828	
478	0	32802	
479	0	32866	
480	0	32841	
481	0	32839	
482	0	32788	
483	0	32789	
484	0	32828	
485	0	32886	
486	0	32816	
487	0	32808	
488	0	32844	
489	0	32800	
490	0	32852	
491	0	32848	
492	0	32816	
493	0	32740	
494	0	32886	
495	0	32912	
496	0	32784	
497	0	32792	
498	0	32886	
499	0	32832	
500	0	32814	
501	0	32856	
502	0	32775	
503	0	32776	
504	0	32834	
505	0	32880	
506	0	32808	
507	0	32780	
508	0	32814	
509	0	32884	
510	0	32780	
511	0	32832	
512	0	32858	
513	0	32790	
514	0	32800	
515	0	32878	
516	0	32856	
517	0	32802	
518	0	32795	
519	0	32903	
520	0	32838	
521	0	32800	
522	0	32869	
523	0	32837	
524	0	32804	
525	0	32844	
526	0	32832	
527	0	32802	
528	0	32790	
529	0	32885	
530	0	32824	
531	0	32818	
532	0	32884	
533	0	32768	
534	0	32800	
535	0	32826	
536	0	32844	
537	0	32831	
538	0	32813	
539	0	32856	
540	0	32904	
541	0	32780	
542	0	32872	
543	0	32807	
544	0	32848	
545	0	32832	
546	0	32874	
547	0	32776	
548	0	32820	
549	0	32864	
550	0	32876	
551	0	32820	
552	0	32800	
553	0	32808	
554	0	32812	
555	0	32828	
556	0	32892	
557	0	32786	
558	0	32819	
559	0	32843	
560	0	32794	
561	0	32829	
562	0	32807	
563	0	32852	
564	0	32864	
565	0	32836	
566	0	32856	
567	0	32879	
568	0	32830	
569	0	32822	
570	0	32788	
571	0	32776	
572	0	32880	
573	0	32836	
574	0	32852	
575	0	32832	
576	0	32852	
577	0	32832	
578	0	32851	
579	0	32842	
580	0	32828	
581	0	32824	
582	0	32848	
583	0	32850	
584	0	32826	
585	0	32848	
586	0	32815	
587	0	32740	
588	0	32789	
589	0	32852	
590	0	32834	
591	0	32822	
592	0	32844	
593	0	32864	
594	0	32864	
595	0	32848	
596	0	32800	
597	0	32810	
598	0	32820	
599	0	32797	
600	0	32826	
601	0	32800	
602	0	32813	
603	0	32900	
604	0	32874	
605	0	32752	
606	0	32820	
607	0	32840	
608	0	32759	
609	0	32822	
610	0	32891	
611	0	32720	
612	0	32816	
613	0	32928	
614	0	32824	
615	0	32768	
616	0	32836	
617	0	32848	
618	0	32755	
619	0	32824	
620	0	32904	
621	0	32836	
622	0	32776	
623	0	32886	
624	0	32833	
625	0	32740	
626	0	32828	
627	0	32864	
628	0	32789	
629	0	32794	
630	0	32951	
631	0	32850	
632	0	32780	
633	0	32820	
634	0	32824	
635	0	32758	
636	0	32736	
637	0	32884	
638	0	32840	
639	0	32845	
640	0	32920	
641	0	32832	
642	0	32756	
643	0	32834	
644	0	32816	
645	0	32776	
646	0	32788	
647	0	32782	
648	0	32866	
649	0	32916	
650	0	32812	
651	0	32895	
652	0	32756	
653	0	32728	
654	0	32620	
655	0	32804	
656	0	33028	
657	0	32889	
658	0	32940	
659	0	32756	
660	0	32679	
661	0	32692	
662	0	32790	
663	0	32988	
664	0	32916	
665	0	32932	
666	0	32904	
667	0	32772	
668	0	32647	
669	0	32804	
670	0	32772	
671	0	32874	
672	0	32800	
673	0	32896	
674	0	32960	
675	0	32788	
676	0	32872	
677	0	32802	
678	0	32721	
679	0	32672	
680	0	32784	
681	0	33002	
682	0	32864	
683	0	32881	
684	0	32892	
685	0	32774	
686	0	32678	
687	0	32762	
688	0	32886	
689	0	32772	
690	0	32784	
691	0	32880	
692	0	32932	
693	0	32816	
694	0	32801	
695	0	32796	
696	0	32756	
697	0	32772	
698	0	32943	
699	0	32940	
700	0	32838	
701	0	32862	
702	0	32772	
703	0	32731	
704	0	32748	
705	0	32898	
706	0	32900	
707	0	32792	
708	0	32838	
709	0	32798	
710	0	32856	
711	0	32724	
712	0	32864	
713	0	32816	
714	0	32752	
715	0	32814	
716	0	32896	
717	0	32892	
718	0	32816	
719	0	32862	
720	0	32804	
721	0	32756	
722	0	32784	
723	0	32856	
724	0	32904	
725	0	32726	
726	0	32836	
727	0	32908	
728	0	32906	
729	0	32836	
730	0	32811	
731	0	32764	
732	0	32716	
733	0	32810	
734	0	32890	
735	0	32854	
736	0	32864	
737	0	32850	
738	0	32808	
739	0	32862	
740	0	32896	
741	0	32790	
742	0	32708	
743	0	32703	
744	0	32832	
745	0	32992	
746	0	32968	
747	0	33012	
748	0	32695	
749	0	32622	
750	0	32658	
751	0	32780	
752	0	32858	
753	0	32935	
754	0	32954	
755	0	32970	
756	0	32870	
757	0	32768	
758	0	32666	
759	0	32606	
760	0	32856	
761	0	32981	
762	0	32950	
763	0	32986	
764	0	32797	
765	0	32710	
766	0	32826	
767	0	32824	
768	0	32776	
769	0	32708	
770	0	32898	
771	0	32942	
772	0	32946	
773	0	32876	
774	0	32791	
775	0	32541	
776	0	32756	
777	0	32948	
778	0	32858	
779	0	32912	
780	0	33016	
781	0	32814	
782	0	32690	
783	0	32788	
784	0	32668	
785	0	32702	
786	0	32999	
787	0	32900	
788	0	32800	
789	0	32927	
790	0	32916	
791	0	32696	
792	0	32762	
793	0	32772	
794	0	32780	
795	0	32872	
796	0	33006	
797	0	32856	
798	0	32946	
799	0	32700	
800	0	32614	
801	0	32810	
802	0	32868	
803	0	32898	
804	0	33022	
805	0	32774	
806	0	32671	
807	0	32768	
808	0	32876	
809	0	32791	
810	0	32948	
811	0	32845	
812	0	32830	
813	0	32892	
814	0	32804	
815	0	32814	
816	0	32992	
817	0	32710	
818	0	32704	
819	0	32902	
820	0	32848	
821	0	32816	
822	0	32920	
823	0	32890	
824	0	32744	
825	0	32856	
826	0	32648	
827	0	32704	
828	0	33078	
829	0	32982	
830	0	32716	
831	0	32916	
832	0	32808	
833	0	32769	
834	0	32714	
835	0	32938	
836	0	32884	
837	0	32882	
838	0	32928	
839	0	32712	
840	0	32768	
841	0	32816	
842	0	32864	
843	0	32787	
844	0	32806	
845	0	32912	
846	0	32842	
847	0	32874	
848	0	32768	
849	0	32751	
850	0	32882	
851	0	32783	
852	0	32712	
853	0	32970	
854	0	32939	
855	0	32826	
856	0	32766	
857	0	32712	
858	0	32793	
859	0	32880	
860	0	32789	
861	0	32884	
862	0	32900	
863	0	32902	
864	0	32839	
865	0	32724	
866	0	32762	
867	0	32832	
868	0	32983	
869	0	32744	
870	0	32888	
871	0	32844	
872	0	32904	
873	0	32896	
874	0	32705	
875	0	32778	
876	0	32768	
877	0	32832	
878	0	32772	
879	0	32878	
880	0	32885	
881	0	32960	
882	0	32920	
883	0	32608	
884	0	32767	
885	0	32806	
886	0	32874	
887	0	32752	
888	0	32804	
889	0	32854	
890	0	33004	
891	0	32998	
892	0	32620	
893	0	32879	
894	0	32759	
895	0	32859	
896	0	32776	
897	0	32816	
898	0	32940	
899	0	33017	
900	0	32996	
901	0	32638	
902	0	32728	
903	0	32884	
904	0	32786	
905	0	32868	
906	0	32876	
907	0	32716	
908	0	32912	
909	0	32963	
910	0	32880	
911	0	32850	
912	0	32784	
913	0	32736	
914	0	32816	
915	0	32880	
916	0	32768	
917	0	32832	
918	0	32900	
919	0	32884	
920	0	32837	
921	0	32792	
922	0	32776	
923	0	32736	
924	0	32906	
925	0	32780	
926	0	32832	
927	0	32808	
928	0	32919	
929	0	33018	
930	0	32800	
931	0	32754	
932	0	32640	
933	0	32838	
934	0	32896	
935	0	32714	
936	0	32884	
937	0	32831	
938	0	32952	
939	0	32960	
940	0	32736	
941	0	32768	
942	0	32772	
943	0	32850	
944	0	32864	
945	0	32748	
946	0	32868	
947	0	32824	
948	0	33040	
949	0	32870	
950	0	32750	
951	0	32666	
952	0	32740	
953	0	32908	
954	0	32788	
955	0	32844	
956	0	32768	
957	0	32839	
958	0	32986	
959	0	32748	
960	0	32865	
961	0	32726	
962	0	32720	
963	0	32964	
964	0	32764	
965	0	32822	
966	0	32882	
967	0	32872	
968	0	32938	
969	0	32880	
970	0	32595	
971	0	32752	
972	0	32770	
973	0	32958	
974	0	32754	
975	0	32798	
976	0	32888	
977	0	32788	
978	0	32932	
979	0	32902	
980	0	32697	
981	0	32858	
982	0	32768	
983	0	32800	
984	0	32856	
985	0	32720	
986	0	32896	
987	0	32936	
988	0	32912	
989	0	32885	
990	0	32733	
991	0	32725	
992	0	32911	
993	0	32730	
994	0	32760	
995	0	32920	
996	0	32854	
997	0	32976	
998	0	32768	
999	0	32709	
1000	0	32798	
1001	0	32768	
1002	0	33006	
1003	0	32756	
1004	0	32743	
1005	0	32948	
1006	0	32876	
1007	0	32928	
1008	0	32760	
1009	0	32689	
1010	0	32854	
1011	0	32758	
1012	0	32818	
1013	0	32904	
1014	0	32726	
1015	0	32936	
1016	0	32812	
1017	0	32711	
1018	0	32928	
1019	0	32722	
1020	0	32768	
1021	0	32928	
1022	0	32771	
1023	0	32847	
1024	0	32962	
1025	0	32716	
1026	0	32805	
1027	0	32887	
1028	0	32774	
1029	0	32849	
1030	0	32844	
1031	0	32839	
1032	0	32826	
1033	0	32900	
1034	0	32847	
1035	0	32672	
1036	0	32892	
1037	0	32776	
1038	0	32744	
1039	0	32950	
1040	0	32768	
1041	0	32794	
1042	0	32936	
1043	0	32832	
1044	0	32855	
1045	0	32820	
1046	0	32774	
1047	0	32903	
1048	0	32802	
1049	0	32794	
1050	0	32904	
1051	0	32759	
1052	0	32772	
1053	0	32916	
1054	0	32798	
1055	0	32810	
1056	0	32820	
1057	0	32790	
1058	0	32912	
1059	0	32759	
1060	0	32840	
1061	0	32884	
1062	0	32730	
1063	0	32898	
1064	0	32820	
1065	0	32716	
1066	0	32900	
1067	0	32795	
1068	0	32788	
1069	0	32917	
1070	0	32826	
1071	0	32800	
1072	0	32800	
1073	0	32848	
1074	0	32868	
1075	0	32813	
1076	0	32887	
1077	0	32776	
1078	0	32791	
1079	0	32861	
1080	0	32852	
1081	0	32828	
1082	0	32847	
1083	0	32868	
1084	0	32775	
1085	0	32758	
1086	0	32938	
1087	0	32848	
1088	0	32804	
1089	0	32896	
1090	0	32810	
1091	0	32852	
1092	0	32864	
1093	0	32736	
1094	0	32831	
1095	0	32952	
1096	0	32693	
1097	0	32894	
1098	0	32978	
1099	0	32702	
1100	0	32870	
1101	0	32879	
1102	0	32732	
1103	0	32884	
1104	0	32856	
1105	0	32826	
1106	0	32816	
1107	0	32838	
1108	0	32864	
1109	0	32818	
1110	0	32856	
1111	0	32847	
1112	0	32812	
1113	0	32888	
1114	0	32842	
1115	0	32772	
1116	0	32868	
1117	0	32838	
1118	0	32740	
1119	0	32944	
1120	0	32860	
1121	0	32804	
1122	0	32848	
1123	0	32788	
1124	0	32778	
1125	0	32870	
1126	0	32794	
1127	0	32780	
1128	0	32904	
1129	0	32838	
1130	0	32748	
1131	0	32892	
1132	0	32852	
1133	0	32692	
1134	0	32908	
1135	0	32842	
1136	0	32672	
1137	0	32952	
1138	0	32856	
1139	0	32720	
1140	0	32936	
1141	0	32832	
1142	0	32728	
1143	0	32908	
1144	0	32852	
1145	0	32666	
1146	0	32842	
1147	0	32892	
1148	0	32748	
1149	0	32860	
1150	0	32912	
1151	0	32668	
1152	0	32884	
1153	0	32948	
1154	0	32663	
1155	0	32936	
1156	0	32906	
1157	0	32704	
1158	0	32932	
1159	0	32918	
1160	0	32711	
1161	0	32859	
1162	0	32841	
1163	0	32792	
1164	0	32883	
1165	0	32762	
1166	0	32864	
1167	0	32866	
1168	0	32738	
1169	0	32887	
1170	0	32823	
1171	0	32749	
1172	0	32879	
1173	0	32858	
1174	0	32860	
1175	0	32788	
1176	0	32828	
1177	0	32872	
1178	0	32802	
1179	0	32858	
1180	0	32800	
1181	0	32788	
1182	0	32864	
1183	0	32837	
1184	0	32823	
1185	0	32832	
1186	0	32798	
1187	0	32900	
1188	0	32856	
1189	0	32850	
1190	0	32832	
1191	0	32770	
1192	0	32848	
1193	0	32802	
1194	0	32784	
1195	0	32928	
1196	0	32880	
1197	0	32740	
1198	0	32916	
1199	0	32879	
1200	0	32776	
1201	0	32851	
1202	0	32796	
1203	0	32816	
1204	0	32872	
1205	0	32803	
1206	0	32870	
1207	0	32800	
1208	0	32824	
1209	0	32816	
1210	0	32813	
1211	0	32860	
1212	0	32864	
1213	0	32770	
1214	0	32863	
1215	0	32830	
1216	0	32798	
1217	0	32904	
1218	0	32822	
1219	0	32784	
1220	0	32896	
1221	0	32894	
1222	0	32756	
1223	0	32836	
1224	0	32896	
1225	0	32856	
1226	0	32848	
1227	0	32890	
1228	0	32785	
1229	0	32864	
1230	0	32847	
1231	0	32812	
1232	0	32880	
1233	0	32903	
1234	0	32760	
1235	0	32846	
1236	0	32860	
1237	0	32714	
1238	0	32812	
1239	0	32875	
1240	0	32787	
1241	0	32838	
1242	0	32858	
1243	0	32822	
1244	0	32868	
1245	0	32895	
1246	0	32804	
1247	0	32860	
1248	0	32800	
1249	0	32792	
1250	0	32775	
1251	0	32840	
1252	0	32852	
1253	0	32767	
1254	0	32860	
1255	0	32852	
1256	0	32792	
1257	0	32810	
1258	0	32895	
1259	0	32828	
1260	0	32834	
1261	0	32840	
1262	0	32840	
1263	0	32775	
1264	0	32868	
1265	0	32820	
1266	0	32764	
1267	0	32947	
1268	0	32800	
1269	0	32736	
1270	0	32880	
1271	0	32800	
1272	0	32768	
1273	0	32872	
1274	0	32754	
1275	0	32794	
1276	0	32900	
1277	0	32790	
1278	0	32834	
1279	0	32887	
1280	0	32695	
1281	0	32783	
1282	0	32850	
1283	0	32772	
1284	0	32869	
1285	0	32810	
1286	0	32780	
1287	0	32848	
1288	0	32846	
1289	0	32768	
1290	0	32850	
1291	0	32824	
1292	0	32828	
1293	0	32824	
1294	0	32832	
1295	0	32938	
1296	0	32832	
1297	0	32816	
1298	0	32864	
1299	0	32727	
1300	0	32782	
1301	0	32964	
1302	0	32750	
1303	0	32852	
1304	0	32914	
1305	0	32763	
1306	0	32876	
1307	0	32930	
1308	0	32744	
1309	0	32902	
1310	0	32908	
1311	0	32752	
1312	0	32923	
1313	0	32864	
1314	0	32738	
1315	0	32912	
1316	0	32855	
1317	0	32748	
1318	0	32920	
1319	0	32836	
1320	0	32704	
1321	0	32930	
1322	0	32828	
1323	0	32684	
1324	0	32868	
1325	0	32792	
1326	0	32780	
1327	0	32896	
1328	0	32736	
1329	0	32832	
1330	0	32850	
1331	0	32760	
1332	0	32926	
1333	0	32816	
1334	0	32710	
1335	0	32943	
1336	0	32828	
1337	0	32752	
1338	0	32982	
1339	0	32788	
1340	0	32756	
1341	0	33040	
1342	0	32776	
1343	0	32744	
1344	0	32972	
1345	0	32786	
1346	0	32810	
1347	0	32938	
1348	0	32762	
1349	0	32741	
1350	0	32872	
1351	0	32816	
1352	0	32790	
1353	0	32815	
1354	0	32816	
1355	0	32802	
1356	0	32730	
1357	0	32776	
1358	0	32784	
1359	0	32768	
1360	0	32800	
1361	0	32820	
1362	0	32776	
1363	0	32872	
1364	0	32752	
1365	0	32880	
1366	0	32910	
1367	0	32776	
1368	0	32866	
1369	0	33044	
1370	0	32746	
1371	0	32892	
1372	0	32998	
1373	0	32764	
1374	0	32928	
1375	0	32940	
1376	0	32804	
1377	0	32852	
1378	0	32804	
1379	0	32719	
1380	0	32946	
1381	0	32754	
1382	0	32706	
1383	0	32916	
1384	0	32743	
1385	0	32634	
1386	0	32868	
1387	0	32741	
1388	0	32740	
1389	0	32864	
1390	0	32738	
1391	0	32882	
1392	0	32807	
1393	0	32684	
1394	0	32976	
1395	0	32844	
1396	0	32724	
1397	0	32904	
1398	0	32804	
1399	0	32832	
1400	0	32886	
1401	0	32810	
1402	0	32828	
1403	0	32848	
1404	0	32864	
1405	0	32820	
1406	0	32823	
1407	0	32868	
1408	0	32848	
1409	0	32900	
1410	0	32812	
1411	0	32842	
1412	0	32928	
1413	0	32840	
1414	0	32792	
1415	0	32895	
1416	0	32776	
1417	0	32744	
1418	0	32812	
1419	0	32822	
1420	0	32812	
1421	0	32984	
1422	0	32688	
1423	0	32800	
1424	0	32898	
1425	0	32736	
1426	0	32752	
1427	0	32906	
1428	0	32828	
1429	0	32950	
1430	0	32759	
1431	0	32762	
1432	0	32806	
1433	0	32948	
1434	0	32644	
1435	0	32848	
1436	0	33006	
1437	0	32860	
1438	0	32647	
1439	0	32898	
1440	0	32804	
1441	0	32774	
1442	0	32718	
1443	0	32854	
1444	0	32892	
1445	0	32896	
1446	0	32744	
1447	0	32866	
1448	0	32704	
1449	0	32889	
1450	0	32794	
1451	0	32815	
1452	0	32919	
1453	0	32934	
1454	0	32894	
1455	0	32684	
1456	0	32758	
1457	0	32844	
1458	0	32758	
1459	0	32807	
1460	0	32890	
1461	0	32792	
1462	0	32884	
1463	0	32788	
1464	0	32800	
1465	0	32828	
1466	0	32914	
1467	0	32840	
1468	0	32748	
1469	0	32900	
1470	0	32998	
1471	0	32804	
1472	0	32756	
1473	0	32854	
1474	0	32850	
1475	0	32800	
1476	0	32691	
1477	0	32848	
1478	0	32840	
1479	0	32756	
1480	0	32902	
1481	0	32820	
1482	0	32714	
1483	0	32832	
1484	0	32774	
1485	0	32759	
1486	0	32888	
1487	0	32821	
1488	0	32880	
1489	0	32959	
1490	0	32762	
1491	0	32832	
1492	0	32808	
1493	0	32752	
1494	0	32902	
1495	0	32814	
1496	0	32942	
1497	0	32956	
1498	0	32772	
1499	0	32879	
1500	0	32879	
1501	0	32708	
1502	0	32798	
1503	0	32914	
1504	0	32958	
1505	0	32865	
1506	0	32758	
1507	0	32849	
1508	0	32820	
1509	0	32804	
1510	0	32874	
1511	0	32904	
1512	0	32815	
1513	0	32796	
1514	0	32842	
1515	0	32768	
1516	0	32804	
1517	0	32864	
1518	0	32788	
1519	0	32884	
1520	0	32856	
1521	0	32767	
1522	0	32724	
1523	0	32768	
1524	0	32840	
1525	0	32828	
1526	0	32800	
1527	0	32846	
1528	0	32900	
1529	0	32740	
1530	0	32798	
1531	0	32885	
1532	0	32775	
1533	0	32838	
1534	0	32870	
1535	0	32780	
1536	0	32864	
1537	0	32820	
1538	0	32804	
1539	0	32850	
1540	0	32840	
1541	0	32904	
1542	0	32896	
1543	0	32776	
1544	0	32816	
1545	0	32908	
1546	0	32805	
1547	0	32908	
1548	0	32996	
1549	0	32818	
1550	0	32746	
1551	0	32866	
1552	0	32758	
1553	0	32848	
1554	0	32924	
1555	0	32911	
1556	0	32852	
1557	0	32802	
1558	0	32732	
1559	0	32772	
1560	0	32756	
1561	0	32834	
1562	0	32900	
1563	0	32880	
1564	0	32866	
1565	0	32844	
1566	0	32708	
1567	0	32756	
1568	0	32822	
1569	0	32791	
1570	0	32866	
1571	0	32900	
1572	0	32888	
1573	0	32892	
1574	0	32768	
1575	0	32728	
1576	0	32804	
1577	0	32860	
1578	0	32880	
1579	0	32834	
1580	0	32821	
1581	0	32814	
1582	0	32806	
1583	0	32796	
1584	0	32844	
1585	0	32882	
1586	0	32804	
1587	0	32768	
1588	0	32848	
1589	0	32796	
1590	0	32832	
1591	0	32887	
1592	0	32768	
1593	0	32820	
1594	0	32804	
1595	0	32806	
1596	0	32739	
1597	0	32876	
1598	0	32944	
1599	0	32762	
1600	0	32810	
1601	0	32890	
1602	0	32816	
1603	0	32780	
1604	0	32871	
1605	0	32884	
1606	0	32778	
1607	0	32832	
1608	0	32864	
1609	0	32798	
1610	0	32802	
1611	0	32827	
1612	0	32806	
1613	0	32759	
1614	0	32860	
1615	0	32908	
1616	0	32768	
1617	0	32794	
1618	0	32864	
1619	0	32734	
1620	0	32772	
1621	0	32944	
1622	0	32844	
1623	0	32796	
1624	0	32916	
1625	0	32870	
1626	0	32716	
1627	0	32808	
1628	0	32848	
1629	0	32820	
1630	0	32813	
1631	0	32960	
1632	0	32902	
1633	0	32730	
1634	0	32792	
1635	0	32848	
1636	0	32802	
1637	0	32806	
1638	0	32932	
1639	0	32852	
1640	0	32767	
1641	0	32884	
1642	0	32848	
1643	0	32728	
1644	0	32805	
1645	0	32874	
1646	0	32806	
1647	0	32864	
1648	0	32908	
1649	0	32772	
1650	0	32776	
1651	0	32892	
1652	0	32846	
1653	0	32764	
1654	0	32864	
1655	0	32872	
1656	0	32840	
1657	0	32768	
1658	0	32816	
1659	0	32854	
1660	0	32796	
1661	0	32752	
1662	0	32900	
1663	0	32812	
1664	0	32804	
1665	0	32898	
1666	0	32826	
1667	0	32822	
1668	0	32848	
1669	0	32790	
1670	0	32822	
1671	0	32820	
1672	0	32799	
1673	0	32894	
1674	0	32774	
1675	0	32818	
1676	0	32908	
1677	0	32728	
1678	0	32716	
1679	0	32896	
1680	0	32780	
1681	0	32840	
1682	0	32888	
1683	0	32832	
1684	0	32825	
1685	0	32852	
1686	0	32886	
1687	0	32760	
1688	0	32789	
1689	0	32956	
1690	0	32808	
1691	0	32744	
1692	0	32940	
1693	0	32851	
1694	0	32723	
1695	0	32820	
1696	0	32876	
1697	0	32808	
1698	0	32821	
1699	0	32850	
1700	0	32774	
1701	0	32864	
1702	0	32900	
1703	0	32752	
1704	0	32756	
1705	0	32924	
1706	0	32896	
1707	0	32730	
1708	0	32892	
1709	0	32904	
1710	0	32804	
1711	0	32792	
1712	0	32868	
1713	0	32896	
1714	0	32818	
1715	0	32768	
1716	0	32836	
1717	0	32836	
1718	0	32804	
1719	0	32784	
1720	0	32854	
1721	0	32826	
1722	0	32840	
1723	0	32792	
1724	0	32792	
1725	0	32868	
1726	0	32824	
1727	0	32768	
1728	0	32886	
1729	0	32900	
1730	0	32839	
1731	0	32832	
1732	0	32792	
1733	0	32884	
1734	0	32865	
1735	0	32838	
1736	0	32880	
1737	0	32800	
1738	0	32768	
1739	0	32832	
1740	0	32784	
1741	0	32798	
1742	0	32876	
1743	0	32782	
1744	0	32768	
1745	0	32834	
1746	0	32756	
1747	0	32860	
1748	0	32873	
1749	0	32784	
1750	0	32892	
1751	0	32928	
1752	0	32772	
1753	0	32881	
1754	0	32864	
1755	0	32772	
1756	0	32886	
1757	0	32856	
1758	0	32821	
1759	0	32807	
1760	0	32824	
1761	0	32794	
1762	0	32800	
1763	0	32852	
1764	0	32844	
1765	0	32748	
1766	0	32808	
1767	0	32868	
1768	0	32756	
1769	0	32800	
1770	0	32916	
1771	0	32795	
1772	0	32832	
1773	0	32884	
1774	0	32774	
1775	0	32844	
1776	0	32872	
1777	0	32756	
1778	0	32895	
1779	0	32900	
1780	0	32856	
1781	0	32839	
1782	0	32800	
1783	0	32855	
1784	0	32849	
1785	0	32846	
1786	0	32807	
1787	0	32836	
1788	0	32808	
1789	0	32840	
1790	0	32855	
1791	0	32796	
1792	0	32832	
1793	0	32803	
1794	0	32788	
1795	0	32876	
1796	0	32812	
1797	0	32836	
1798	0	32868	
1799	0	32792	
1800	0	32820	
1801	0	32853	
1802	0	32780	
1803	0	32878	
1804	0	32910	
1805	0	32748	
1806	0	32902	
1807	0	32882	
1808	0	32754	
1809	0	32853	
1810	0	32856	
1811	0	32752	
1812	0	32828	
1813	0	32849	
1814	0	32846	
1815	0	32864	
1816	0	32784	
1817	0	32804	
1818	0	32874	
1819	0	32772	
1820	0	32814	
1821	0	32786	
1822	0	32780	
1823	0	32860	
1824	0	32800	
1825	0	32815	
1826	0	32874	
1827	0	32765	
1828	0	32836	
1829	0	32884	
1830	0	32842	
1831	0	32914	
1832	0	32864	
1833	0	32784	
1834	0	32924	
1835	0	32822	
1836	0	32772	
1837	0	32866	
1838	0	32812	
1839	0	32800	
1840	0	32864	
1841	0	32772	
1842	0	32776	
1843	0	32842	
1844	0	32755	
1845	0	32820	
1846	0	32906	
1847	0	32806	
1848	0	32812	
1849	0	32804	
1850	0	32863	
1851	0	32841	
1852	0	32832	
1853	0	32900	
1854	0	32904	
1855	0	32854	
1856	0	32904	
1857	0	32850	
1858	0	32802	
1859	0	32876	
1860	0	32734	
1861	0	32724	
1862	0	32888	
1863	0	32743	
1864	0	32820	
1865	0	32872	
1866	0	32788	
1867	0	32788	
1868	0	32892	
1869	0	32871	
1870	0	32832	
1871	0	32856	
1872	0	32824	
1873	0	32824	
1874	0	32820	
1875	0	32868	
1876	0	32788	
1877	0	32816	
1878	0	32930	
1879	0	32848	
1880	0	32836	
1881	0	32892	
1882	0	32804	
1883	0	32750	
1884	0	32836	
1885	0	32854	
1886	0	32817	
1887	0	32852	
1888	0	32800	
1889	0	32839	
1890	0	32840	
1891	0	32812	
1892	0	32838	
1893	0	32821	
1894	0	32792	
1895	0	32795	
1896	0	32904	
1897	0	32820	
1898	0	32854	
1899	0	32904	
1900	0	32807	
1901	0	32823	
1902	0	32774	
1903	0	32872	
1904	0	32766	
1905	0	32754	
1906	0	32916	
1907	0	32756	
1908	0	32830	
1909	0	32837	
1910	0	32814	
1911	0	32752	
1912	0	32822	
1913	0	32848	
1914	0	32836	
1915	0	32900	
1916	0	32839	
1917	0	32832	
1918	0	32816	
1919	0	32866	
1920	0	32788	
1921	0	32839	
1922	0	32772	
1923	0	32957	
1924	0	32736	
1925	0	32808	
1926	0	32752	
1927	0	32807	
1928	0	32818	
1929	0	32922	
1930	0	32815	
1931	0	32826	
1932	0	32884	
1933	0	32825	
1934	0	32832	
1935	0	32743	
1936	0	32880	
1937	0	32844	
1938	0	32832	
1939	0	32944	
1940	0	32796	
1941	0	32752	
1942	0	32748	
1943	0	32877	
1944	0	32762	
1945	0	32884	
1946	0	32876	
1947	0	32816	
1948	0	32818	
1949	0	32864	
1950	0	32764	
1951	0	32752	
1952	0	32812	
1953	0	32832	
1954	0	32815	
1955	0	32844	
1956	0	32808	
1957	0	32864	
1958	0	32870	
1959	0	32840	
1960	0	32860	
1961	0	32826	
1962	0	32872	
1963	0	32812	
1964	0	32772	
1965	0	32864	
1966	0	32788	
1967	0	32815	
1968	0	32885	
1969	0	32820	
1970	0	32758	
1971	0	32848	
1972	0	32768	
1973	0	32907	
1974	0	32838	
1975	0	32772	
1976	0	32852	
1977	0	32880	
1978	0	32810	
1979	0	32812	
1980	0	32822	
1981	0	32852	
1982	0	32911	
1983	0	32866	
1984	0	32844	
1985	0	32868	
1986	0	32816	
1987	0	32852	
1988	0	32821	
1989	0	32834	
1990	0	32796	
1991	0	32808	
1992	0	32815	
1993	0	32878	
1994	0	32828	
1995	0	32756	
1996	0	32858	
1997	0	32812	
1998	0	32882	
1999	0	32858	
2000	0	32902	
2001	0	32828	
2002	0	32782	
2003	0	32752	
2004	0	32808	
2005	0	32836	
2006	0	32760	
2007	0	32854	
2008	0	32814	
2009	0	32874	
2010	0	32826	
2011	0	32808	
2012	0	32820	
2013	0	32816	
2014	0	32846	
2015	0	32840	
2016	0	32900	
2017	0	32804	
2018	0	32864	
2019	0	32759	
2020	0	32832	
2021	0	32832	
2022	0	32828	
2023	0	32744	
2024	0	32828	
2025	0	32802	
2026	0	32828	
2027	0	32772	
2028	0	32820	
2029	0	32794	
2030	0	32831	
2031	0	32816	
2032	0	32894	
2033	0	32848	
2034	0	32794	
2035	0	32824	
2036	0	32868	
2037	0	32890	
2038	0	32800	
2039	0	32884	
2040	0	32792	
2041	0	32864	
2042	0	32816	
2043	0	32822	
2044	0	32846	
2045	0	32832	
2046	0	32800	
2047	0	32854	
2048	0	32856	
2049	0	32779	
2050	0	32780	
2051	0	32814	
2052	0	32837	
2053	0	32816	
2054	0	32776	
2055	0	32836	
2056	0	32800	
2057	0	32824	
2058	0	32847	
2059	0	32792	
2060	0	32800	
2061	0	32832	
2062	0	32830	
2063	0	32842	
2064	0	32832	
2065	0	32820	
2066	0	32776	
2067	0	32868	
2068	0	32865	
2069	0	32818	
2070	0	32838	
2071	0	32780	
2072	0	32823	
2073	0	32854	
2074	0	32918	
2075	0	32686	
2076	0	32722	
2077	0	32954	
2078	0	32828	
2079	0	32790	
2080	0	32928	
2081	0	32768	
2082	0	32733	
2083	0	33020	
2084	0	32856	
2085	0	32790	
2086	0	32912	
2087	0	32606	
2088	0	32880	
2089	0	32975	
2090	0	32814	
2091	0	32802	
2092	0	32842	
2093	0	32564	
2094	0	32898	
2095	0	32768	
2096	0	32596	
2097	0	32936	
2098	0	32878	
2099	0	32704	
2100	0	33044	
2101	0	32664	
2102	0	32696	
2103	0	32896	
2104	0	32852	
2105	0	32945	
2106	0	32824	
2107	0	32864	
2108	0	33112	
2109	0	32757	
2110	0	32840	
2111	0	32960	
2112	0	32525	
2113	0	32836	
2114	0	32704	
2115	0	32702	
2116	0	32884	
2117	0	32926	
2118	0	32948	
2119	0	32708	
2120	0	32926	
2121	0	32932	
2122	0	32740	
2123	0	32860	
2124	0	32812	
2125	0	32824	
2126	0	32796	
2127	0	32895	
2128	0	32898	
2129	0	32886	
2130	0	32760	
2131	0	32980	
2132	0	32818	
2133	0	32717	
2134	0	32829	
2135	0	32956	
2136	0	32810	
2137	0	32772	
2138	0	32852	
2139	0	32852	
2140	0	32720	
2141	0	32904	
2142	0	32818	
2143	0	32700	
2144	0	32866	
2145	0	32974	
2146	0	32724	
2147	0	32801	
2148	0	32874	
2149	0	32828	
2150	0	32816	
2151	0	32858	
2152	0	32780	
2153	0	32746	
2154	0	32753	
2155	0	32866	
2156	0	32876	
2157	0	32782	
2158	0	32986	
2159	0	32822	
2160	0	32886	
2161	0	32821	
2162	0	32796	
2163	0	32820	
2164	0	32944	
2165	0	32676	
2166	0	33080	
2167	0	32614	
2168	0	32900	
2169	0	32864	
2170	0	32772	
2171	0	32620	
2172	0	32976	
2173	0	32612	
2174	0	32772	
2175	0	32930	
2176	0	32918	
2177	0	32804	
2178	0	32854	
2179	0	32928	
2180	0	32711	
2181	0	32608	
2182	0	32972	
2183	0	32998	
2184	0	32624	
2185	0	32970	
2186	0	32836	
2187	0	32765	
2188	0	32892	
2189	0	33012	
2190	0	32644	
2191	0	32816	
2192	0	32832	
2193	0	32926	
2194	0	32802	
2195	0	32788	
2196	0	32932	
2197	0	32759	
2198	0	32793	
2199	0	32688	
2200	0	32968	
2201	0	32752	
2202	0	32726	
2203	0	32935	
2204	0	32836	
2205	0	32879	
2206	0	32936	
2207	0	32797	
2208	0	32638	
2209	0	32836	
2210	0	32876	
2211	0	32848	
2212	0	32720	
2213	0	32970	
2214	0	32816	
2215	0	32756	
2216	0	32792	
2217	0	32922	
2218	0	32806	
2219	0	32852	
2220	0	32768	
2221	0	32930	
2222	0	32759	
2223	0	32924	
2224	0	32824	
2225	0	32832	
2226	0	32687	
2227	0	32926	
2228	0	32888	
2229	0	32744	
2230	0	32742	
2231	0	32896	
2232	0	32925	
2233	0	32761	
2234	0	32826	
2235	0	32757	
2236	0	32836	
2237	0	32800	
2238	0	32994	
2239	0	32736	
2240	0	32832	
2241	0	32768	
2242	0	32948	
2243	0	32828	
2244	0	32864	
2245	0	32760	
2246	0	32868	
2247	0	32810	
2248	0	32888	
2249	0	32884	
2250	0	32808	
2251	0	32752	
2252	0	32863	
2253	0	32898	
2254	0	32766	
2255	0	32768	
2256	0	32876	
2257	0	32942	
2258	0	32726	
2259	0	32904	
2260	0	32707	
2261	0	32864	
2262	0	32756	
2263	0	32940	
2264	0	32840	
2265	0	32888	
2266	0	32716	
2267	0	32822	
2268	0	32908	
2269	0	32866	
2270	0	32796	
2271	0	32815	
2272	0	32876	
2273	0	32720	
2274	0	32907	
2275	0	32812	
2276	0	32927	
2277	0	32791	
2278	0	32876	
2279	0	32768	
2280	0	32844	
2281	0	32693	
2282	0	32968	
2283	0	32748	
2284	0	32784	
2285	0	32928	
2286	0	32855	
2287	0	32684	
2288	0	32914	
2289	0	32880	
2290	0	32900	
2291	0	32864	
2292	0	32702	
2293	0	33016	
2294	0	32768	
2295	0	32856	
2296	0	32772	
2297	0	32720	
2298	0	32896	
2299	0	32816	
2300	0	32712	
2301	0	32885	
2302	0	32788	
2303	0	33028	
2304	0	32752	
2305	0	32960	
2306	0	32723	
2307	0	32663	
2308	0	32920	
2309	0	32956	
2310	0	32851	
2311	0	32679	
2312	0	32832	
2313	0	32944	
2314	0	32788	
2315	0	32818	
2316	0	32902	
2317	0	32628	
2318	0	33139	
2319	0	32744	
2320	0	32840	
2321	0	32660	
2322	0	32924	
2323	0	32964	
2324	0	32719	
2325	0	32944	
2326	0	32776	
2327	0	32608	
2328	0	32879	
2329	0	32913	
2330	0	33002	
2331	0	32698	
2332	0	32788	
2333	0	32882	
2334	0	32694	
2335	0	32876	
2336	0	32851	
2337	0	32884	
2338	0	32820	
2339	0	32805	
2340	0	32848	
2341	0	32800	
2342	0	32692	
2343	0	33056	
2344	0	32713	
2345	0	32962	
2346	0	32631	
2347	0	32756	
2348	0	32902	
2349	0	32806	
2350	0	33008	
2351	0	32704	
2352	0	32836	
2353	0	32740	
2354	0	32828	
2355	0	32939	
2356	0	32991	
2357	0	32906	
2358	0	32724	
2359	0	32770	
2360	0	32836	
2361	0	32828	
2362	0	32736	
2363	0	32968	
2364	0	32780	
2365	0	32800	
2366	0	32756	
2367	0	32756	
2368	0	32958	
2369	0	32838	
2370	0	33032	
2371	0	32676	
2372	0	32884	
2373	0	32756	
2374	0	32796	
2375	0	32834	
2376	0	32880	
2377	0	32888	
2378	0	32738	
2379	0	32788	
2380	0	32978	
2381	0	32804	
2382	0	32864	
2383	0	32952	
2384	0	32648	
2385	0	32864	
2386	0	32708	
2387	0	32848	
2388	0	32792	
2389	0	32925	
2390	0	32934	
2391	0	32749	
2392	0	32820	
2393	0	32838	
2394	0	32599	
2395	0	32936	
2396	0	33023	
2397	0	32768	
2398	0	32791	
2399	0	32776	
2400	0	32772	
2401	0	32676	
2402	0	32829	
2403	0	33059	
2404	0	32710	
2405	0	32772	
2406	0	32804	
2407	0	32766	
2408	0	32914	
2409	0	32844	
2410	0	33006	
2411	0	32767	
2412	0	32826	
2413	0	32784	
2414	0	32696	
2415	0	32800	
2416	0	32906	
2417	0	32936	
2418	0	32815	
2419	0	32724	
2420	0	32872	
2421	0	32834	
2422	0	32784	
2423	0	32852	
2424	0	32944	
2425	0	32872	
2426	0	32676	
2427	0	32704	
2428	0	32764	
2429	0	32864	
2430	0	32932	
2431	0	32944	
2432	0	32804	
2433	0	32744	
2434	0	32815	
2435	0	32904	
2436	0	32868	
2437	0	32924	
2438	0	32854	
2439	0	32738	
2440	0	32720	
2441	0	32816	
2442	0	32844	
2443	0	32884	
2444	0	32900	
2445	0	32748	
2446	0	32832	
2447	0	32764	
2448	0	32810	
2449	0	32816	
2450	0	32914	
2451	0	32802	
2452	0	32680	
2453	0	32719	
2454	0	32768	
2455	0	32836	
2456	0	32906	
2457	0	32872	
2458	0	32688	
2459	0	32756	
2460	0	32838	
2461	0	32878	
2462	0	32847	
2463	0	32912	
2464	0	32880	
2465	0	32712	
2466	0	32802	
2467	0	32736	
2468	0	32922	
2469	0	32860	
2470	0	32874	
2471	0	32700	
2472	0	32831	
2473	0	32840	
2474	0	32802	
2475	0	32864	
2476	0	32907	
2477	0	32871	
2478	0	32648	
2479	0	32832	
2480	0	32784	
2481	0	32858	
2482	0	32852	
2483	0	32919	
2484	0	32778	
2485	0	32779	
2486	0	32913	
2487	0	32790	
2488	0	32789	
2489	0	32960	
2490	0	32880	
2491	0	32726	
2492	0	32800	
2493	0	32808	
2494	0	32826	
2495	0	32816	
2496	0	32844	
2497	0	32807	
2498	0	32812	
2499	0	32844	
2500	0	32934	
2501	0	32815	
2502	0	32834	
2503	0	32816	
2504	0	32792	
2505	0	32734	
2506	0	32836	
2507	0	32850	
2508	0	32860	
2509	0	32852	
2510	0	32768	
2511	0	32847	
2512	0	32854	
2513	0	32876	
2514	0	32896	
2515	0	32886	
2516	0	32804	
2517	0	32754	
2518	0	32803	
2519	0	32876	
2520	0	32847	
2521	0	32740	
2522	0	32910	
2523	0	32752	
2524	0	32840	
2525	0	32848	
2526	0	32814	
2527	0	32846	
2528	0	32992	
2529	0	32760	
2530	0	32818	
2531	0	32869	
2532	0	32911	
2533	0	32746	
2534	0	32930	
2535	0	32680	
2536	0	32832	
2537	0	32784	
2538	0	32912	
2539	0	32656	
2540	0	33037	
2541	0	32672	
2542	0	32768	
2543	0	32784	
2544	0	32988	
2545	0	32554	
2546	0	33001	
2547	0	32608	
2548	0	32856	
2549	0	32794	
2550	0	33080	
2551	0	32455	
2552	0	32960	
2553	0	32592	
2554	0	32930	
2555	0	32810	
2556	0	33050	
2557	0	32470	
2558	0	33010	
2559	0	32700	
2560	0	32902	
2561	0	32814	
2562	0	33032	
2563	0	32748	
2564	0	32986	
2565	0	32828	
2566	0	32766	
2567	0	32844	
2568	0	33006	
2569	0	32922	
2570	0	32656	
2571	0	32979	
2572	0	32631	
2573	0	32788	
2574	0	32972	
2575	0	32904	
2576	0	32680	
2577	0	32824	
2578	0	32884	
2579	0	32608	
2580	0	32926	
2581	0	32900	
2582	0	32980	
2583	0	32735	
2584	0	32784	
2585	0	32858	
2586	0	32752	
2587	0	32948	
2588	0	32800	
2589	0	32996	
2590	0	32631	
2591	0	32970	
2592	0	32792	
2593	0	32904	
2594	0	32680	
2595	0	32976	
2596	0	32852	
2597	0	32788	
2598	0	32820	
2599	0	32864	
2600	0	32780	
2601	0	32874	
2602	0	32828	
2603	0	32852	
2604	0	32632	
2605	0	32974	
2606	0	32644	
2607	0	32899	
2608	0	32802	
2609	0	32848	
2610	0	32804	
2611	0	32826	
2612	0	32930	
2613	0	32740	
2614	0	32866	
2615	0	32762	
2616	0	32884	
2617	0	32838	
2618	0	32804	
2619	0	32882	
2620	0	32780	
2621	0	32752	
2622	0	32886	
2623	0	32812	
2624	0	32848	
2625	0	32690	
2626	0	32998	
2627	0	32602	
2628	0	32880	
2629	0	32836	
2630	0	32976	
2631	0	32724	
2632	0	32820	
2633	0	32880	
2634	0	32662	
2635	0	32839	
2636	0	32946	
2637	0	32844	
2638	0	32752	
2639	0	32748	
2640	0	32926	
2641	0	32712	
2642	0	32884	
2643	0	32902	
2644	0	32900	
2645	0	32764	
2646	0	32808	
2647	0	32964	
2648	0	32687	
2649	0	32856	
2650	0	32791	
2651	0	32940	
2652	0	32700	
2653	0	32866	
2654	0	32856	
2655	0	32674	
2656	0	32900	
2657	0	32871	
2658	0	32980	
2659	0	32702	
2660	0	32954	
2661	0	32810	
2662	0	32701	
2663	0	32904	
2664	0	32844	
2665	0	32884	
2666	0	32661	
2667	0	32902	
2668	0	32743	
2669	0	32820	
2670	0	32850	
2671	0	32796	
2672	0	32828	
2673	0	32759	
2674	0	32872	
2675	0	32804	
2676	0	32886	
2677	0	32821	
2678	0	32764	
2679	0	32840	
2680	0	32772	
2681	0	32856	
2682	0	32764	
2683	0	32904	
2684	0	32778	
2685	0	32844	
2686	0	32726	
2687	0	32874	
2688	0	32804	
2689	0	32816	
2690	0	32864	
2691	0	32860	
2692	0	32775	
2693	0	32772	
2694	0	32872	
2695	0	32770	
2696	0	32772	
2697	0	32900	
2698	0	32836	
2699	0	32826	
2700	0	32741	
2701	0	32904	
2702	0	32800	
2703	0	32808	
2704	0	32860	
2705	0	32848	
2706	0	32764	
2707	0	32788	
2708	0	32820	
2709	0	32812	
2710	0	32818	
2711	0	32930	
2712	0	32782	
2713	0	32799	
2714	0	32788	
2715	0	32916	
2716	0	32782	
2717	0	32903	
2718	0	32836	
2719	0	32824	
2720	0	32724	
2721	0	32831	
2722	0	32828	
2723	0	32858	
2724	0	32856	
2725	0	32906	
2726	0	32772	
2727	0	32840	
2728	0	32784	
2729	0	32880	
2730	0	32800	
2731	0	32876	
2732	0	32816	
2733	0	32832	
2734	0	32834	
2735	0	32800	
2736	0	32886	
2737	0	32817	
2738	0	32888	
2739	0	32820	
2740	0	32858	
2741	0	32818	
2742	0	32763	
2743	0	32846	
2744	0	32776	
2745	0	32920	
2746	0	32920	
2747	0	32700	
2748	0	32879	
2749	0	32696	
2750	0	32876	
2751	0	32786	
2752	0	32983	
2753	0	32666	
2754	0	32940	
2755	0	32727	
2756	0	32914	
2757	0	32708	
2758	0	32933	
2759	0	32992	
2760	0	32612	
2761	0	33060	
2762	0	32708	
2763	0	32802	
2764	0	32868	
2765	0	32816	
2766	0	32938	
2767	0	32700	
2768	0	32976	
2769	0	32792	
2770	0	32788	
2771	0	32796	
2772	0	32878	
2773	0	32945	
2774	0	32576	
2775	0	32968	
2776	0	32714	
2777	0	32720	
2778	0	32806	
2779	0	32912	
2780	0	32870	
2781	0	32894	
2782	0	32914	
2783	0	32718	
2784	0	32820	
2785	0	32830	
2786	0	32890	
2787	0	32852	
2788	0	32920	
2789	0	32864	
2790	0	32826	
2791	0	32804	
2792	0	32826	
2793	0	32916	
2794	0	32806	
2795	0	32851	
2796	0	32820	
2797	0	32758	
2798	0	32844	
2799	0	32800	
2800	0	32899	
2801	0	32848	
2802	0	32815	
2803	0	32820	
2804	0	32860	
2805	0	32800	
2806	0	32820	
2807	0	32853	
2808	0	32830	
2809	0	32864	
2810	0	32802	
2811	0	32815	
2812	0	32898	
2813	0	32716	
2814	0	32816	
2815	0	32774	
2816	0	32992	
2817	0	32808	
2818	0	32816	
2819	0	32804	
2820	0	32897	
2821	0	32662	
2822	0	32912	
2823	0	32858	
2824	0	32800	
2825	0	32892	
2826	0	32892	
2827	0	32786	
2828	0	32806	
2829	0	32784	
2830	0	32754	
2831	0	32878	
2832	0	32958	
2833	0	32880	
2834	0	32726	
2835	0	32827	
2836	0	32582	
2837	0	32908	
2838	0	32774	
2839	0	32902	
2840	0	32991	
2841	0	32674	
2842	0	32884	
2843	0	32704	
2844	0	32904	
2845	0	32759	
2846	0	32877	
2847	0	32886	
2848	0	33071	
2849	0	32644	
2850	0	32980	
2851	0	32702	
2852	0	32839	
2853	0	32840	
2854	0	32788	
2855	0	33058	
2856	0	32942	
2857	0	32856	
2858	0	32528	
2859	0	32912	
2860	0	32727	
2861	0	32844	
2862	0	32928	
2863	0	32972	
2864	0	32776	
2865	0	32624	
2866	0	32800	
2867	0	33039	
2868	0	32712	
2869	0	32846	
2870	0	32736	
2871	0	33066	
2872	0	32592	
2873	0	32800	
2874	0	32732	
2875	0	32964	
2876	0	32656	
2877	0	32944	
2878	0	32903	
2879	0	33112	
2880	0	32469	
2881	0	32808	
2882	0	32768	
2883	0	32960	
2884	0	32640	
2885	0	32848	
2886	0	32839	
2887	0	32982	
2888	0	32496	
2889	0	32980	
2890	0	32692	
2891	0	32901	
2892	0	32780	
2893	0	32832	
2894	0	32902	
2895	0	32934	
2896	0	32868	
2897	0	32719	
2898	0	32768	
2899	0	32872	
2900	0	32827	
2901	0	32794	
2902	0	32662	
2903	0	32956	
2904	0	32792	
2905	0	32962	
2906	0	32887	
2907	0	33032	
2908	0	32812	
2909	0	32800	
2910	0	32832	
2911	0	32719	
2912	0	32732	
2913	0	32739	
2914	0	32878	
2915	0	32976	
2916	0	32928	
2917	0	32688	
2918	0	32874	
2919	0	32960	
2920	0	32871	
2921	0	32803	
2922	0	32814	
2923	0	32766	
2924	0	32740	
2925	0	32856	
2926	0	32740	
2927	0	32818	
2928	0	32840	
2929	0	32880	
2930	0	32968	
2931	0	32998	
2932	0	32823	
2933	0	32752	
2934	0	32724	
2935	0	32716	
2936	0	32736	
2937	0	32799	
2938	0	32848	
2939	0	32962	
2940	0	33046	
2941	0	32788	
2942	0	32780	
2943	0	32591	
2944	0	32848	
2945	0	33010	
2946	0	33088	
2947	0	32820	
2948	0	32596	
2949	0	32560	
2950	0	32664	
2951	0	32943	
2952	0	33007	
2953	0	33007	
2954	0	32800	
2955	0	32798	
2956	0	32820	
2957	0	32764	
2958	0	32975	
2959	0	32612	
2960	0	32798	
2961	0	32572	
2962	0	32860	
2963	0	32968	
2964	0	33050	
2965	0	33080	
2966	0	32848	
2967	0	32654	
2968	0	32628	
2969	0	32788	
2970	0	32774	
2971	0	32906	
2972	0	32890	
2973	0	32938	
2974	0	32943	
2975	0	32885	
2976	0	32744	
2977	0	32672	
2978	0	32730	
2979	0	33058	
2980	0	32812	
2981	0	32844	
2982	0	32740	
2983	0	32660	
2984	0	32904	
2985	0	33172	
2986	0	33087	
2987	0	32740	
2988	0	32690	
2989	0	32628	
2990	0	32724	
2991	0	32794	
2992	0	32912	
2993	0	32696	
2994	0	32837	
2995	0	32954	
2996	0	32942	
2997	0	32864	
2998	0	32822	
2999	0	32908	
3000	0	32806	
3001	0	32950	
3002	0	32846	
3003	0	32615	
3004	0	32638	
3005	0	32896	
3006	0	32938	
3007	0	32902	
3008	0	32876	
3009	0	32702	
3010	0	32824	
3011	0	32942	
3012	0	32992	
3013	0	32824	
3014	0	32788	
3015	0	32672	
3016	0	32728	
3017	0	32948	
3018	0	32996	
3019	0	32775	
3020	0	32640	
3021	0	32824	
3022	0	32900	
3023	0	32938	
3024	0	32988	
3025	0	32896	
3026	0	32708	
3027	0	32707	
3028	0	32914	
3029	0	32872	
3030	0	32812	
3031	0	32764	
3032	0	32726	
3033	0	32805	
3034	0	32972	
3035	0	32983	
3036	0	32860	
3037	0	32813	
3038	0	32816	
3039	0	32746	
3040	0	32786	
3041	0	32760	
3042	0	32818	
3043	0	32738	
3044	0	32896	
3045	0	32948	
3046	0	32874	
3047	0	32792	
3048	0	32794	
3049	0	32854	
3050	0	32944	
3051	0	32834	
3052	0	32829	
3053	0	32728	
3054	0	32704	
3055	0	32768	
3056	0	32934	
3057	0	32880	
3058	0	32932	
3059	0	32764	
3060	0	32928	
3061	0	32922	
3062	0	32852	
3063	0	32776	
3064	0	32738	
3065	0	32664	
3066	0	32800	
3067	0	32791	
3068	0	32915	
3069	0	32852	
3070	0	32752	
3071	0	32903	
3072	0	32844	
3073	0	33015	
3074	0	32924	
3075	0	32768	
3076	0	32839	
3077	0	32836	
3078	0	32908	
3079	0	32855	
3080	0	32700	
3081	0	32772	
3082	0	32868	
3083	0	32768	
3084	0	32862	
3085	0	32872	
3086	0	32911	
3087	0	32706	
3088	0	32884	
3089	0	32860	
3090	0	32934	
3091	0	32802	
3092	0	32720	
3093	0	32816	
3094	0	32900	
3095	0	32828	
3096	0	32846	
3097	0	32807	
3098	0	32764	
3099	0	32814	
3100	0	32852	
3101	0	32832	
3102	0	32740	
3103	0	32854	
3104	0	32858	
3105	0	32868	
3106	0	32879	
3107	0	32841	
3108	0	32804	
3109	0	32764	
3110	0	32806	
3111	0	32801	
3112	0	32884	
3113	0	32768	
3114	0	32833	
3115	0	32868	
3116	0	32832	
3117	0	32832	
3118	0	32810	
3119	0	32780	
3120	0	32800	
3121	0	32933	
3122	0	32908	
3123	0	32940	
3124	0	32866	
3125	0	32704	
3126	0	32826	
3127	0	32816	
3128	0	32780	
3129	0	32799	
3130	0	32760	
3131	0	32832	
3132	0	32988	
3133	0	32840	
3134	0	32864	
3135	0	32824	
3136	0	32760	
3137	0	32902	
3138	0	32882	
3139	0	32872	
3140	0	32832	
3141	0	32815	
3142	0	32912	
3143	0	32938	
3144	0	32878	
3145	0	32804	
3146	0	32746	
3147	0	32810	
3148	0	32862	
3149	0	32888	
3150	0	32960	
3151	0	32805	
3152	0	32696	
3153	0	32816	
3154	0	32756	
3155	0	32856	
3156	0	32888	
3157	0	32800	
3158	0	32752	
3159	0	32904	
3160	0	32808	
3161	0	32762	
3162	0	32878	
3163	0	32832	
3164	0	32896	
3165	0	32900	
3166	0	32816	
3167	0	32766	
3168	0	32753	
3169	0	32828	
3170	0	32798	
3171	0	32791	
3172	0	32924	
3173	0	32810	
3174	0	32788	
3175	0	32841	
3176	0	32828	
3177	0	32830	
3178	0	32854	
3179	0	32780	
3180	0	32784	
3181	0	32902	
3182	0	32812	
3183	0	32798	
3184	0	32786	
3185	0	32832	
3186	0	32822	
3187	0	32831	
3188	0	32912	
3189	0	32864	
3190	0	32828	
3191	0	32908	
3192	0	32780	
3193	0	32688	
3194	0	32791	
3195	0	32736	
3196	0	32788	
3197	0	32856	
3198	0	32888	
3199	0	32848	
3200	0	32653	
3201	0	32950	
3202	0	32791	
3203	0	32724	
3204	0	32936	
3205	0	32872	
3206	0	32913	
3207	0	32623	
3208	0	32880	
3209	0	32672	
3210	0	32854	
3211	0	32908	
3212	0	32784	
3213	0	32980	
3214	0	33000	
3215	0	32663	
3216	0	32988	
3217	0	32776	
3218	0	32844	
3219	0	32683	
3220	0	32980	
3221	0	33078	
3222	0	32415	
3223	0	33096	
3224	0	32610	
3225	0	32760	
3226	0	32730	
3227	0	32900	
3228	0	32890	
3229	0	32656	
3230	0	32900	
3231	0	32882	
3232	0	32780	
3233	0	33056	
3234	0	32944	
3235	0	32824	
3236	0	33215	
3237	0	32482	
3238	0	32823	
3239	0	32582	
3240	0	32928	
3241	0	32656	
3242	0	32810	
3243	0	33052	
3244	0	32546	
3245	0	32736	
3246	0	33022	
3247	0	32788	
3248	0	32958	
3249	0	32916	
3250	0	33008	
3251	0	32940	
3252	0	32374	
3253	0	33040	
3254	0	32520	
3255	0	32788	
3256	0	32975	
3257	0	32711	
3258	0	32914	
3259	0	33075	
3260	0	32648	
3261	0	32976	
3262	0	32748	
3263	0	32931	
3264	0	32800	
3265	0	32898	
3266	0	32898	
3267	0	32618	
3268	0	32612	
3269	0	32940	
3270	0	32720	
3271	0	32900	
3272	0	32916	
3273	0	32893	
3274	0	32819	
3275	0	32828	
3276	0	32724	
3277	0	32897	
3278	0	32823	
3279	0	32912	
3280	0	32684	
3281	0	32902	
3282	0	32910	
3283	0	32809	
3284	0	32702	
3285	0	32928	
3286	0	32741	
3287	0	32774	
3288	0	32912	
3289	0	32896	
3290	0	32818	
3291	0	32887	
3292	0	32730	
3293	0	32754	
3294	0	32978	
3295	0	32794	
3296	0	32752	
3297	0	32974	
3298	0	32904	
3299	0	32726	
3300	0	32788	
3301	0	32810	
3302	0	32832	
3303	0	32836	
3304	0	32874	
3305	0	32824	
3306	0	32772	
3307	0	32838	
3308	0	32789	
3309	0	32751	
3310	0	32926	
3311	0	32851	
3312	0	32772	
3313	0	32805	
3314	0	32886	
3315	0	32704	
3316	0	32842	
3317	0	32862	
3318	0	32872	
3319	0	32884	
3320	0	32868	
3321	0	32748	
3322	0	32768	
3323	0	32912	
3324	0	32847	
3325	0	32850	
3326	0	32867	
3327	0	32834	
3328	0	32724	
3329	0	32806	
3330	0	32838	
3331	0	32822	
3332	0	32735	
3333	0	32921	
3334	0	32854	
3335	0	32708	
3336	0	32836	
3337	0	32831	
3338	0	32754	
3339	0	32956	
3340	0	32876	
3341	0	32772	
3342	0	32938	
3343	0	32804	
3344	0	32773	
3345	0	32820	
3346	0	32848	
3347	0	32720	
3348	0	32826	
3349	0	32908	
3350	0	32768	
3351	0	32765	
3352	0	32920	
3353	0	32836	
3354	0	32768	
3355	0	32940	
3356	0	32894	
3357	0	32692	
3358	0	32877	
3359	0	32931	
3360	0	32740	
3361	0	32912	
3362	0	32752	
3363	0	32760	
3364	0	32992	
3365	0	32776	
3366	0	32836	
3367	0	32744	
3368	0	32988	
3369	0	32880	
3370	0	32512	
3371	0	33066	
3372	0	32770	
3373	0	32758	
3374	0	32964	
3375	0	32932	
3376	0	32928	
3377	0	32624	
3378	0	32742	
3379	0	32796	
3380	0	32724	
3381	0	32927	
3382	0	32656	
3383	0	32974	
3384	0	33077	
3385	0	32600	
3386	0	32916	
3387	0	32794	
3388	0	32778	
3389	0	32758	
3390	0	32840	
3391	0	32976	
3392	0	32956	
3393	0	32556	
3394	0	32916	
3395	0	32690	
3396	0	32807	
3397	0	32884	
3398	0	32822	
3399	0	32860	
3400	0	33064	
3401	0	32614	
3402	0	32796	
3403	0	32861	
3404	0	32828	
3405	0	32768	
3406	0	32860	
3407	0	32884	
3408	0	32939	
3409	0	32916	
3410	0	32655	
3411	0	32733	
3412	0	32792	
3413	0	32820	
3414	0	32826	
3415	0	32938	
3416	0	32992	
3417	0	32822	
3418	0	32856	
3419	0	32711	
3420	0	32736	
3421	0	32812	
3422	0	32826	
3423	0	32925	
3424	0	32793	
3425	0	32914	
3426	0	32845	
3427	0	32752	
3428	0	32928	
3429	0	32692	
3430	0	32748	
3431	0	32780	
3432	0	32830	
3433	0	32898	
3434	0	32752	
3435	0	32950	
3436	0	32860	
3437	0	32796	
3438	0	32974	
3439	0	32863	
3440	0	32764	
3441	0	32840	
3442	0	32812	
3443	0	32816	
3444	0	32775	
3445	0	32828	
3446	0	32844	
3447	0	32766	
3448	0	32888	
3449	0	32740	
3450	0	32772	
3451	0	32880	
3452	0	32852	
3453	0	32815	
3454	0	32724	
3455	0	32850	
3456	0	32829	
3457	0	32743	
3458	0	32884	
3459	0	32904	
3460	0	32872	
3461	0	32840	
3462	0	32818	
3463	0	32799	
3464	0	32688	
3465	0	32864	
3466	0	32926	
3467	0	32774	
3468	0	32804	
3469	0	32864	
3470	0	32805	
3471	0	32708	
3472	0	32860	
3473	0	32752	
3474	0	32775	
3475	0	33068	
3476	0	32792	
3477	0	32840	
3478	0	32908	
3479	0	32768	
3480	0	32816	
3481	0	32626	
3482	0	32970	
3483	0	32786	
3484	0	32688	
3485	0	33108	
3486	0	32692	
3487	0	32833	
3488	0	32840	
3489	0	32679	
3490	0	32902	
3491	0	32742	
3492	0	32898	
3493	0	32804	
3494	0	32836	
3495	0	32880	
3496	0	32724	
3497	0	32878	
3498	0	32772	
3499	0	32800	
3500	0	32855	
3501	0	32796	
3502	0	32862	
3503	0	32760	
3504	0	32832	
3505	0	32872	
3506	0	32868	
3507	0	32817	
3508	0	32800	
3509	0	32828	
3510	0	32848	
3511	0	32906	
3512	0	32780	
3513	0	32788	
3514	0	32884	
3515	0	32788	
3516	0	32880	
3517	0	32888	
3518	0	32720	
3519	0	32792	
3520	0	32860	
3521	0	32764	
3522	0	32837	
3523	0	32908	
3524	0	32864	
3525	0	32807	
3526	0	32887	
3527	0	32872	
3528	0	32724	
3529	0	32856	
3530	0	32844	
3531	0	32796	
3532	0	32864	
3533	0	32860	
3534	0	32839	
3535	0	32788	
3536	0	32792	
3537	0	32808	
3538	0	32808	
3539	0	32896	
3540	0	32868	
3541	0	32808	
3542	0	32910	
3543	0	32769	
3544	0	32848	
3545	0	32794	
3546	0	32858	
3547	0	32875	
3548	0	32732	
3549	0	32880	
3550	0	32796	
3551	0	32773	
3552	0	32992	
3553	0	32720	
3554	0	32812	
3555	0	32862	
3556	0	32776	
3557	0	32853	
3558	0	32808	
3559	0	32862	
3560	0	32904	
3561	0	32846	
3562	0	32862	
3563	0	32788	
3564	0	32754	
3565	0	32871	
3566	0	32768	
3567	0	32840	
3568	0	32898	
3569	0	32808	
3570	0	32803	
3571	0	32768	
3572	0	32816	
3573	0	32756	
3574	0	32816	
3575	0	32796	
3576	0	32768	
3577	0	32876	
3578	0	32888	
3579	0	32824	
3580	0	32806	
3581	0	32886	
3582	0	32768	
3583	0	32864	
3584	0	32913	
3585	0	32800	
3586	0	32835	
3587	0	32843	
3588	0	32802	
3589	0	32786	
3590	0	32816	
3591	0	32838	
3592	0	32816	
3593	0	32848	
3594	0	32844	
3595	0	32768	
3596	0	32844	
3597	0	32812	
3598	0	32798	
3599	0	32876	
3600	0	32866	
3601	0	32888	
3602	0	32807	
3603	0	32806	
3604	0	32828	
3605	0	32810	
3606	0	32870	
3607	0	32772	
3608	0	32828	
3609	0	32914	
3610	0	32832	
3611	0	32814	
3612	0	32796	
3613	0	32873	
3614	0	32848	
3615	0	32778	
3616	0	32920	
3617	0	32816	
3618	0	32804	
3619	0	32860	
3620	0	32736	
3621	0	32866	
3622	0	32847	
3623	0	32832	
3624	0	32800	
3625	0	32865	
3626	0	32884	
3627	0	32790	
3628	0	32800	
3629	0	32836	
3630	0	32806	
3631	0	32804	
3632	0	32775	
3633	0	32800	
3634	0	32828	
3635	0	32882	
3636	0	32794	
3637	0	32645	
3638	0	32797	
3639	0	32816	
3640	0	32833	
3641	0	32823	
3642	0	32848	
3643	0	32832	
3644	0	32788	
3645	0	32822	
3646	0	32868	
3647	0	32832	
3648	0	32796	
3649	0	32780	
3650	0	32873	
3651	0	32903	
3652	0	32968	
3653	0	32946	
3654	0	32650	
3655	0	32752	
3656	0	32772	
3657	0	32980	
3658	0	33008	
3659	0	32528	
3660	0	32922	
3661	0	32912	
3662	0	32736	
3663	0	32696	
3664	0	32788	
3665	0	33072	
3666	0	32872	
3667	0	32800	
3668	0	32816	
3669	0	32848	
3670	0	32866	
3671	0	32790	
3672	0	32516	
3673	0	32943	
3674	0	32745	
3675	0	32796	
3676	0	32928	
3677	0	32936	
3678	0	33084	
3679	0	32720	
3680	0	32600	
3681	0	32904	
3682	0	32848	
3683	0	32920	
3684	0	32902	
3685	0	32542	
3686	0	32857	
3687	0	32730	
3688	0	32790	
3689	0	32880	
3690	0	32790	
3691	0	32704	
3692	0	32804	
3693	0	32800	
3694	0	33002	
3695	0	32702	
3696	0	32852	
3697	0	32824	
3698	0	32948	
3699	0	32736	
3700	0	32836	
3701	0	32790	
3702	0	32900	
3703	0	32808	
3704	0	32752	
3705	0	32558	
3706	0	32852	
3707	0	32920	
3708	0	33004	
3709	0	32658	
3710	0	32810	
3711	0	32719	
3712	0	32986	
3713	0	32942	
3714	0	32908	
3715	0	32692	
3716	0	32916	
3717	0	32704	
3718	0	32936	
3719	0	32844	
3720	0	32796	
3721	0	32800	
3722	0	32940	
3723	0	32776	
3724	0	32778	
3725	0	32786	
3726	0	33041	
3727	0	32929	
3728	0	32820	
3729	0	32728	
3730	0	32800	
3731	0	32952	
3732	0	32816	
3733	0	32632	
3734	0	32726	
3735	0	32807	
3736	0	32982	
3737	0	32903	
3738	0	32755	
3739	0	32752	
3740	0	32868	
3741	0	32746	
3742	0	32903	
3743	0	32608	
3744	0	32806	
3745	0	32960	
3746	0	32900	
3747	0	32698	
3748	0	32706	
3749	0	32980	
3750	0	32970	
3751	0	32854	
3752	0	32863	
3753	0	32902	
3754	0	32644	
3755	0	32928	
3756	0	32668	
3757	0	32848	
3758	0	32770	
3759	0	32801	
3760	0	32864	
3761	0	32796	
3762	0	32804	
3763	0	32775	
3764	0	32949	
3765	0	32911	
3766	0	32692	
3767	0	32864	
3768	0	32767	
3769	0	32844	
3770	0	32921	
3771	0	32918	
3772	0	32736	
3773	0	32736	
3774	0	32818	
3775	0	32893	
3776	0	32908	
3777	0	32727	
3778	0	32794	
3779	0	32792	
3780	0	32814	
3781	0	32852	
3782	0	32879	
3783	0	32784	
3784	0	32826	
3785	0	32978	
3786	0	32928	
3787	0	32864	
3788	0	32866	
3789	0	32864	
3790	0	32850	
3791	0	32836	
3792	0	32871	
3793	0	32856	
3794	0	32844	
3795	0	32736	
3796	0	32774	
3797	0	32808	
3798	0	32908	
3799	0	32804	
3800	0	32869	
3801	0	32750	
3802	0	32769	
3803	0	32728	
3804	0	32832	
3805	0	32943	
3806	0	32886	
3807	0	32896	
3808	0	32740	
3809	0	32872	
3810	0	32706	
3811	0	32760	
3812	0	32812	
3813	0	32792	
3814	0	32880	
3815	0	32812	
3816	0	32828	
3817	0	32832	
3818	0	32954	
3819	0	32967	
3820	0	32860	
3821	0	32686	
3822	0	32800	
3823	0	32864	
3824	0	32736	
3825	0	32796	
3826	0	32944	
3827	0	32854	
3828	0	32912	
3829	0	32832	
3830	0	32895	
3831	0	32847	
3832	0	32776	
3833	0	32778	
3834	0	32896	
3835	0	32824	
3836	0	32898	
3837	0	32902	
3838	0	32852	
3839	0	32766	
3840	0	32927	
3841	0	32854	
3842	0	32853	
3843	0	32672	
3844	0	32768	
3845	0	32896	
3846	0	32884	
3847	0	32856	
3848	0	32628	
3849	0	32796	
3850	0	32884	
3851	0	32954	
3852	0	32776	
3853	0	32884	
3854	0	32836	
3855	0	32856	
3856	0	32919	
3857	0	32788	
3858	0	32854	
3859	0	32826	
3860	0	32884	
3861	0	32836	
3862	0	32736	
3863	0	32872	
3864	0	32756	
3865	0	32908	
3866	0	32906	
3867	0	32808	
3868	0	32804	
3869	0	32890	
3870	0	32956	
3871	0	32805	
3872	0	32768	
3873	0	32748	
3874	0	32818	
3875	0	32918	
3876	0	32826	
3877	0	32844	
3878	0	32802	
3879	0	32892	
3880	0	32958	
3881	0	32753	
3882	0	32704	
3883	0	32880	
3884	0	32720	
3885	0	32886	
3886	0	32770	
3887	0	32904	
3888	0	32796	
3889	0	32866	
3890	0	32944	
3891	0	32678	
3892	0	32792	
3893	0	32850	
3894	0	32786	
3895	0	32902	
3896	0	32724	
3897	0	32868	
3898	0	32800	
3899	0	32842	
3900	0	32831	
3901	0	32736	
3902	0	32844	
3903	0	32940	
3904	0	32767	
3905	0	32798	
3906	0	32718	
3907	0	32816	
3908	0	32912	
3909	0	32895	
3910	0	32914	
3911	0	32711	
3912	0	32762	
3913	0	32944	
3914	0	32800	
3915	0	32860	
3916	0	32788	
3917	0	32842	
3918	0	32982	
3919	0	32774	
3920	0	32890	
3921	0	32682	
3922	0	32789	
3923	0	32978	
3924	0	32752	
3925	0	32807	
3926	0	32868	
3927	0	32908	
3928	0	32936	
3929	0	32655	
3930	0	32869	
3931	0	32871	
3932	0	32704	
3933	0	32892	
3934	0	32756	
3935	0	32913	
3936	0	32916	
3937	0	32767	
3938	0	32864	
3939	0	32751	
3940	0	32864	
3941	0	32852	
3942	0	32704	
3943	0	32876	
3944	0	32794	
3945	0	32902	
3946	0	32904	
3947	0	32704	
3948	0	32872	
3949	0	32814	
3950	0	32850	
3951	0	32806	
3952	0	32669	
3953	0	32914	
3954	0	32748	
3955	0	32751	
3956	0	32816	
3957	0	32844	
3958	0	32936	
3959	0	32822	
3960	0	32796	
3961	0	32894	
3962	0	32768	
3963	0	32950	
3964	0	32736	
3965	0	32876	
3966	0	32872	
3967	0	32786	
3968	0	32900	
3969	0	32807	
3970	0	32842	
3971	0	32880	
3972	0	32768	
3973	0	32876	
3974	0	32852	
3975	0	32828	
3976	0	32900	
3977	0	32750	
3978	0	32887	
3979	0	32777	
3980	0	32801	
3981	0	32848	
3982	0	32802	
3983	0	32880	
3984	0	32884	
3985	0	32813	
3986	0	32856	
3987	0	32846	
3988	0	32846	
3989	0	32740	
3990	0	32748	
3991	0	32882	
3992	0	32800	
3993	0	32852	
3994	0	32904	
3995	0	32848	
3996	0	32800	
3997	0	32856	
3998	0	32828	
3999	0	32816	
4000	0	32792	
4001	0	32858	
4002	0	32742	
4003	0	32778	
4004	0	32898	
4005	0	32837	
4006	0	32880	
4007	0	32812	
4008	0	32868	
4009	0	32850	
4010	0	32823	
4011	0	32879	
4012	0	32738	
4013	0	32842	
4014	0	32800	
4015	0	32800	
4016	0	32900	
4017	0	32820	
4018	0	32946	
4019	0	32744	
4020	0	32848	
4021	0	32902	
4022	0	32785	
4023	0	32832	
4024	0	32837	
4025	0	32863	
4026	0	32812	
4027	0	32842	
4028	0	32848	
4029	0	32802	
4030	0	32840	
4031	0	32838	
4032	0	32784	
4033	0	32756	
4034	0	32843	
4035	0	32916	
4036	0	32769	
4037	0	32884	
4038	0	32841	
4039	0	32858	
4040	0	32823	
4041	0	32836	
4042	0	32808	
4043	0	32698	
4044	0	32848	
4045	0	32805	
4046	0	32824	
4047	0	32880	
4048	0	32868	
4049	0	32770	
4050	0	32832	
4051	0	32879	
4052	0	32743	
4053	0	32770	
4054	0	32858	
4055	0	32865	
4056	0	32811	
4057	0	32752	
4058	0	32909	
4059	0	32748	
4060	0	32762	
4061	0	32879	
4062	0	32808	
4063	0	32864	
4064	0	32864	
4065	0	32820	
4066	0	32832	
4067	0	32800	
4068	0	32896	
4069	0	32768	
4070	0	32836	
4071	0	32884	
4072	0	32775	
4073	0	32876	
4074	0	32858	
4075	0	32892	
4076	0	32746	
4077	0	32748	
4078	0	32870	
4079	0	32784	
4080	0	32808	
4081	0	32880	
4082	0	32816	
4083	0	32804	
4084	0	32862	
4085	0	32794	
4086	0	32870	
4087	0	32796	
4088	0	32870	
4089	0	32838	
4090	0	32800	
4091	0	32868	
4092	0	32776	
4093	0	32927	
4094	0	32816	
4095	0	32736	
4096	0	32896	
4097	0	32716	
4098	0	32884	
4099	0	32752	
4100	0	32872	
4101	0	32928	
4102	0	32772	
4103	0	32936	
4104	0	32767	
4105	0	32876	
4106	0	32780	
4107	0	32830	
4108	0	32879	
4109	0	32845	
4110	0	32872	
4111	0	32768	
4112	0	32740	
4113	0	32869	
4114	0	32884	
4115	0	32834	
4116	0	32746	
4117	0	32776	
4118	0	32992	
4119	0	32722	
4120	0	32858	
4121	0	32793	
4122	0	32848	
4123	0	32783	
4124	0	32736	
4125	0	32922	
4126	0	32846	
4127	0	32757	
4128	0	32882	
4129	0	32919	
4130	0	32906	
4131	0	32764	
4132	0	32822	
4133	0	32836	
4134	0	32776	
4135	0	32812	
4136	0	32880	
4137	0	32928	
4138	0	32782	
4139	0	32756	
4140	0	32868	
4141	0	32844	
4142	0	32704	
4143	0	32824	
4144	0	32844	
4145	0	32949	
4146	0	32796	
4147	0	32820	
4148	0	32864	
4149	0	32832	
4150	0	32860	
4151	0	32780	
4152	0	32792	
4153	0	32875	
4154	0	32800	
4155	0	32807	
4156	0	32839	
4157	0	32795	
4158	0	32831	
4159	0	32788	
4160	0	32851	
4161	0	32844	
4162	0	32710	
4163	0	32909	
4164	0	32848	
4165	0	32892	
4166	0	32826	
4167	0	32704	
4168	0	32956	
4169	0	32871	
4170	0	32866	
4171	0	32736	
4172	0	32708	
4173	0	32938	
4174	0	32784	
4175	0	32803	
4176	0	32848	
4177	0	32771	
4178	0	32862	
4179	0	32754	
4180	0	32937	
4181	0	32836	
4182	0	32756	
4183	0	32887	
4184	0	32871	
4185	0	32948	
4186	0	32784	
4187	0	32724	
4188	0	32916	
4189	0	32916	
4190	0	32790	
4191	0	32870	
4192	0	32788	
4193	0	32806	
4194	0	32804	
4195	0	32924	
4196	0	32903	
4197	0	32727	
4198	0	32730	
4199	0	32862	
4200	0	32943	
4201	0	32823	
4202	0	32656	
4203	0	32868	
4204	0	32871	
4205	0	32842	
4206	0	33012	
4207	0	32752	
4208	0	32780	
4209	0	32721	
4210	0	32978	
4211	0	32992	
4212	0	32752	
4213	0	32816	
4214	0	32800	
4215	0	32868	
4216	0	32950	
4217	0	32706	
4218	0	32660	
4219	0	32770	
4220	0	32824	
4221	0	33077	
4222	0	32952	
4223	0	32728	
4224	0	32691	
4225	0	32720	
4226	0	32984	
4227	0	32948	
4228	0	32823	
4229	0	32835	
4230	0	32640	
4231	0	32920	
4232	0	33000	
4233	0	32834	
4234	0	32740	
4235	0	32658	
4236	0	32926	
4237	0	32896	
4238	0	32702	
4239	0	32864	
4240	0	32902	
4241	0	32946	
4242	0	32920	
4243	0	32848	
4244	0	32613	
4245	0	32564	
4246	0	32735	
4247	0	33012	
4248	0	32948	
4249	0	32829	
4250	0	32724	
4251	0	32744	
4252	0	32882	
4253	0	32980	
4254	0	32780	
4255	0	32783	
4256	0	32804	
4257	0	32636	
4258	0	32997	
4259	0	32903	
4260	0	32663	
4261	0	32838	
4262	0	32852	
4263	0	32746	
4264	0	32864	
4265	0	32960	
4266	0	32711	
4267	0	32912	
4268	0	32801	
4269	0	32832	
4270	0	32664	
4271	0	32621	
4272	0	32772	
4273	0	32950	
4274	0	32888	
4275	0	32632	
4276	0	32666	
4277	0	32554	
4278	0	32539	
4279	0	32970	
4280	0	32911	
4281	0	32672	
4282	0	32649	
4283	0	32615	
4284	0	32772	
4285	0	32855	
4286	0	32768	
4287	0	32823	
4288	0	32855	
4289	0	32800	
4290	0	32740	
4291	0	32632	
4292	0	32888	
4293	0	32758	
4294	0	32664	
4295	0	32812	
4296	0	32655	
4297	0	32572	
4298	0	32750	
4299	0	32980	
4300	0	32908	
4301	0	32938	
4302	0	32938	
4303	0	32658	
4304	0	32660	
4305	0	32756	
4306	0	32634	
4307	0	32816	
4308	0	32861	
4309	0	32816	
4310	0	32825	
4311	0	32912	
4312	0	32880	
4313	0	32788	
4314	0	32828	
4315	0	32806	
4316	0	32832	
4317	0	32788	
4318	0	32737	
4319	0	32760	
4320	0	32832	
4321	0	32936	
4322	0	32992	
4323	0	32960	
4324	0	32652	
4325	0	32738	
4326	0	32936	
4327	0	32824	
4328	0	32972	
4329	0	32842	
4330	0	32660	
4331	0	32807	
4332	0	32784	
4333	0	32844	
4334	0	32866	
4335	0	32808	
4336	0	32803	
4337	0	32797	
4338	0	32819	
4339	0	32738	
4340	0	32748	
4341	0	32852	
4342	0	32813	
4343	0	32856	
4344	0	32846	
4345	0	32679	
4346	0	32772	
4347	0	32784	
4348	0	32882	
4349	0	32840	
4350	0	32757	
4351	0	32916	
4352	0	32842	
4353	0	32802	
4354	0	32918	
4355	0	32736	
4356	0	32724	
4357	0	32832	
4358	0	32818	
4359	0	32800	
4360	0	32772	
4361	0	32759	
4362	0	32804	
4363	0	32804	
4364	0	32836	
4365	0	32888	
4366	0	32828	
4367	0	32904	
4368	0	32922	
4369	0	32728	
4370	0	32760	
4371	0	32728	
4372	0	32768	
4373	0	32856	
4374	0	32810	
4375	0	32725	
4376	0	32898	
4377	0	32912	
4378	0	32848	
4379	0	32922	
4380	0	32704	
4381	0	32792	
4382	0	32879	
4383	0	32806	
4384	0	32834	
4385	0	32855	
4386	0	32736	
4387	0	32795	
4388	0	32791	
4389	0	32890	
4390	0	32836	
4391	0	32838	
4392	0	32832	
4393	0	32818	
4394	0	32938	
4395	0	32858	
4396	0	32912	
4397	0	32912	
4398	0	32887	
4399	0	32800	
4400	0	32783	
4401	0	32866	
4402	0	32990	
4403	0	32885	
4404	0	32844	
4405	0	32780	
4406	0	32704	
4407	0	32771	
4408	0	32880	
4409	0	32908	
4410	0	32832	
4411	0	32912	
4412	0	32826	
4413	0	32822	
4414	0	32850	
4415	0	32852	
4416	0	32820	
4417	0	32799	
4418	0	32762	
4419	0	32844	
4420	0	32864	
4421	0	32828	
4422	0	32825	
4423	0	32760	
4424	0	32843	
4425	0	32824	
4426	0	32836	
4427	0	32800	
4428	0	32876	
4429	0	32886	
4430	0	32716	
4431	0	32884	
4432	0	32806	
4433	0	32822	
4434	0	32876	
4435	0	32812	
4436	0	32948	
4437	0	32831	
4438	0	32712	
4439	0	32808	
4440	0	32788	
4441	0	32822	
4442	0	32908	
4443	0	32893	
4444	0	32887	
4445	0	32770	
4446	0	32706	
4447	0	32856	
4448	0	32864	
4449	0	32814	
4450	0	32804	
4451	0	32908	
4452	0	32853	
4453	0	32778	
4454	0	32793	
4455	0	32813	
4456	0	32880	
4457	0	32879	
4458	0	32842	
4459	0	32908	
4460	0	32864	
4461	0	32888	
4462	0	32791	
4463	0	32724	
4464	0	32814	
4465	0	32714	
4466	0	32822	
4467	0	32960	
4468	0	32826	
4469	0	32772	
4470	0	32804	
4471	0	32824	
4472	0	32912	
4473	0	32843	
4474	0	32792	
4475	0	32823	
4476	0	32820	
4477	0	32926	
4478	0	32849	
4479	0	32818	
4480	0	32802	
4481	0	32816	
4482	0	32783	
4483	0	32823	
4484	0	32807	
4485	0	32789	
4486	0	32862	
4487	0	32849	
4488	0	32806	
4489	0	32776	
4490	0	32780	
4491	0	32788	
4492	0	32768	
4493	0	32846	
4494	0	32852	
4495	0	32872	
4496	0	32874	
4497	0	32880	
4498	0	32864	
4499	0	32804	
4500	0	32823	
4501	0	32790	
4502	0	32862	
4503	0	32883	
4504	0	32858	
4505	0	32786	
4506	0	32817	
4507	0	32776	
4508	0	32836	
4509	0	32875	
4510	0	32854	
4511	0	32910	
4512	0	32919	
4513	0	32814	
4514	0	32802	
4515	0	32804	
4516	0	32792	
4517	0	32832	
4518	0	32821	
4519	0	32868	
4520	0	32889	
4521	0	32780	
4522	0	32802	
4523	0	32784	
4524	0	32812	
4525	0	32856	
4526	0	32876	
4527	0	32828	
4528	0	32867	
4529	0	32808	
4530	0	32834	
4531	0	32784	
4532	0	32837	
4533	0	32819	
4534	0	32892	
4535	0	32833	
4536	0	32820	
4537	0	32747	
4538	0	32852	
4539	0	32763	
4540	0	32768	
4541	0	32840	
4542	0	32874	
4543	0	32847	
4544	0	32821	
4545	0	32792	
4546	0	32904	
4547	0	32808	
4548	0	32809	
4549	0	32830	
4550	0	32904	
4551	0	32872	
4552	0	32744	
4553	0	32842	
4554	0	32880	
4555	0	32748	
4556	0	32760	
4557	0	32891	
4558	0	32904	
4559	0	32892	
4560	0	32712	
4561	0	32812	
4562	0	32800	
4563	0	32815	
4564	0	32776	
4565	0	32904	
4566	0	32974	
4567	0	32698	
4568	0	32838	
4569	0	32852	
4570	0	32889	
4571	0	32804	
4572	0	32844	
4573	0	32876	
4574	0	32690	
4575	0	32812	
4576	0	32877	
4577	0	32847	
4578	0	32756	
4579	0	32916	
4580	0	32928	
4581	0	32680	
4582	0	32779	
4583	0	32826	
4584	0	32848	
4585	0	32816	
4586	0	32948	
4587	0	32998	
4588	0	32711	
4589	0	32757	
4590	0	32842	
4591	0	32876	
4592	0	32795	
4593	0	32928	
4594	0	32976	
4595	0	32735	
4596	0	32800	
4597	0	32780	
4598	0	32820	
4599	0	32756	
4600	0	32912	
4601	0	32964	
4602	0	32735	
4603	0	32850	
4604	0	32717	
4605	0	32836	
4606	0	32720	
4607	0	32888	
4608	0	32974	
4609	0	32736	
4610	0	32868	
4611	0	32752	
4612	0	32856	
4613	0	32788	
4614	0	32912	
4615	0	32772	
4616	0	32772	
4617	0	32876	
4618	0	32886	
4619	0	32879	
4620	0	32896	
4621	0	32936	
4622	0	32646	
4623	0	32812	
4624	0	32766	
4625	0	32855	
4626	0	32836	
4627	0	32902	
4628	0	32848	
4629	0	32665	
4630	0	32898	
4631	0	32792	
4632	0	32807	
4633	0	32882	
4634	0	32970	
4635	0	32684	
4636	0	32812	
4637	0	32864	
4638	0	32839	
4639	0	32818	
4640	0	32892	
4641	0	32824	
4642	0	32712	
4643	0	32834	
4644	0	32839	
4645	0	32822	
4646	0	32904	
4647	0	32936	
4648	0	32758	
4649	0	32794	
4650	0	32832	
4651	0	32840	
4652	0	32852	
4653	0	32904	
4654	0	32748	
4655	0	32879	
4656	0	32784	
4657	0	32750	
4658	0	32792	
4659	0	32904	
4660	0	32751	
4661	0	32770	
4662	0	32860	
4663	0	32849	
4664	0	32832	
4665	0	32736	
4666	0	32816	
4667	0	32784	
4668	0	32870	
4669	0	32832	
4670	0	32812	
4671	0	32864	
4672	0	32856	
4673	0	32751	
4674	0	32860	
4675	0	32906	
4676	0	32880	
4677	0	32804	
4678	0	32864	
4679	0	32828	
4680	0	32792	
4681	0	32836	
4682	0	32864	
4683	0	32881	
4684	0	32800	
4685	0	32830	
4686	0	32720	
4687	0	32864	
4688	0	32852	
4689	0	32868	
4690	0	32840	
4691	0	32784	
4692	0	32848	
4693	0	32784	
4694	0	32848	
4695	0	32814	
4696	0	32812	
4697	0	32784	
4698	0	32836	
4699	0	32779	
4700	0	32816	
4701	0	32888	
4702	0	32852	
4703	0	32794	
4704	0	32816	
4705	0	32855	
4706	0	32815	
4707	0	32882	
4708	0	32848	
4709	0	32823	
4710	0	32800	
4711	0	32756	
4712	0	32844	
4713	0	32836	
4714	0	32863	
4715	0	32848	
4716	0	32832	
4717	0	32832	
4718	0	32812	
4719	0	32759	
4720	0	32832	
4721	0	32876	
4722	0	32850	
4723	0	32800	
4724	0	32822	
4725	0	32822	
4726	0	32847	
4727	0	32858	
4728	0	32838	
4729	0	32848	
4730	0	32824	
4731	0	32812	
4732	0	32836	
4733	0	32846	
4734	0	32830	
4735	0	32852	
4736	0	32824	
4737	0	32762	
4738	0	32844	
4739	0	32847	
4740	0	32810	
4741	0	32778	
4742	0	32884	
4743	0	32851	
4744	0	32820	
4745	0	32768	
4746	0	32850	
4747	0	32827	
4748	0	32900	
4749	0	32852	
4750	0	32817	
4751	0	32838	
4752	0	32866	
4753	0	32820	
4754	0	32840	
4755	0	32888	
4756	0	32806	
4757	0	32784	
4758	0	32788	
4759	0	32903	
4760	0	32806	
4761	0	32852	
4762	0	32780	
4763	0	32836	
4764	0	32829	
4765	0	32824	
4766	0	32810	
4767	0	32867	
4768	0	32886	
4769	0	32864	
4770	0	32816	
4771	0	32822	
4772	0	32848	
4773	0	32854	
4774	0	32868	
4775	0	32840	
4776	0	32834	
4777	0	32754	
4778	0	32808	
4779	0	32833	
4780	0	32850	
4781	0	32844	
4782	0	32843	
4783	0	32816	
4784	0	32790	
4785	0	32844	
4786	0	32816	
4787	0	32818	
4788	0	32834	
4789	0	32794	
4790	0	32786	
4791	0	32855	
4792	0	32864	
4793	0	32788	
4794	0	32836	
4795	0	32828	
4796	0	32842	
4797	0	32808	
4798	0	32856	
4799	0	32801	
4800	0	32836	
4801	0	32887	
4802	0	32802	
4803	0	32811	
4804	0	32830	
4805	0	32858	
4806	0	32794	
4807	0	32864	
4808	0	32813	
4809	0	32830	
4810	0	32836	
4811	0	32834	
4812	0	32828	
4813	0	32799	
4814	0	32840	
4815	0	32816	
4816	0	32832	
4817	0	32868	
4818	0	32780	
4819	0	32783	
4820	0	32816	
4821	0	32843	
4822	0	32824	
4823	0	32806	
4824	0	32840	
4825	0	32848	
4826	0	32859	
4827	0	32850	
4828	0	32831	
4829	0	32812	
4830	0	32826	
4831	0	32866	
4832	0	32808	
4833	0	32815	
4834	0	32801	
4835	0	32828	
4836	0	32843	
4837	0	32854	
4838	0	32832	
4839	0	32820	
4840	0	32832	
4841	0	32811	
4842	0	32784	
4843	0	32800	
4844	0	32820	
4845	0	32824	
4846	0	32826	
4847	0	32822	
4848	0	32878	
4849	0	32830	
4850	0	32824	
4851	0	32888	
4852	0	32847	
4853	0	32829	
4854	0	32862	
4855	0	32808	
4856	0	32839	
4857	0	32828	
4858	0	32832	
4859	0	32850	
4860	0	32816	
4861	0	32864	
4862	0	32840	
4863	0	32808	
4864	0	32807	
4865	0	32826	
4866	0	32781	
4867	0	32846	
4868	0	32857	
4869	0	32818	
4870	0	32836	
4871	0	32874	
4872	0	32826	
4873	0	32778	
4874	0	32800	
4875	0	32820	
4876	0	32864	
4877	0	32808	
4878	0	32806	
4879	0	32861	
4880	0	32806	
4881	0	32816	
4882	0	32816	
4883	0	32832	
4884	0	32848	
4885	0	32876	
4886	0	32836	
4887	0	32820	
4888	0	32808	
4889	0	32768	
4890	0	32836	
4891	0	32838	
4892	0	32880	
4893	0	32828	
4894	0	32836	
4895	0	32872	
4896	0	32844	
4897	0	32864	
4898	0	32831	
4899	0	32838	
4900	0	32828	
4901	0	32831	
4902	0	32838	
4903	0	32816	
4904	0	32838	
4905	0	32820	
4906	0	32842	
4907	0	32816	
4908	0	32792	
4909	0	32828	
4910	0	32830	
4911	0	32832	
4912	0	32825	
4913	0	32830	
4914	0	32758	
4915	0	32826	
4916	0	32852	
4917	0	32846	
4918	0	32832	
4919	0	32800	
4920	0	32834	
4921	0	32810	
4922	0	32836	
4923	0	32844	
4924	0	32804	
4925	0	32840	
4926	0	32839	
4927	0	32852	
4928	0	32871	
4929	0	32904	
4930	0	32816	
4931	0	32815	
4932	0	32863	
4933	0	32828	
4934	0	32855	
4935	0	32826	
4936	0	32838	
4937	0	32846	
4938	0	32850	
4939	0	32848	
4940	0	32818	
4941	0	32847	
4942	0	32844	
4943	0	32864	
4944	0	32820	
4945	0	32854	
4946	0	32856	
4947	0	32838	
4948	0	32882	
4949	0	32800	
4950	0	32820	
4951	0	32841	
4952	0	32818	
4953	0	32823	
4954	0	32825	
4955	0	32812	
4956	0	32831	
4957	0	32816	
4958	0	32858	
4959	0	32836	
4960	0	32848	
4961	0	32792	
4962	0	32880	
4963	0	32824	
4964	0	32840	
4965	0	32828	
4966	0	32804	
4967	0	32876	
4968	0	32868	
4969	0	32858	
4970	0	32800	
4971	0	32844	
4972	0	32844	
4973	0	32834	
4974	0	32858	
4975	0	32814	
4976	0	32811	
4977	0	32848	
4978	0	32844	
4979	0	32760	
4980	0	32796	
4981	0	32839	
4982	0	32860	
4983	0	32803	
4984	0	32832	
4985	0	32852	
4986	0	32836	
4987	0	32788	
4988	0	32824	
4989	0	32840	
4990	0	32840	
4991	0	32836	
4992	0	32832	
4993	0	32856	
4994	0	32880	
4995	0	32856	
4996	0	32818	
4997	0	32816	
4998	0	32822	
4999	0	32848	
5000	0	32811	
5001	0	32800	
5002	0	32836	
5003	0	32800	
5004	0	32864	
5005	0	32808	
5006	0	32808	
5007	0	32855	
5008	0	32822	
5009	0	32832	
5010	0	32832	
5011	0	32817	
5012	0	32823	
5013	0	32830	
5014	0	32816	
5015	0	32832	
5016	0	32820	
5017	0	32855	
5018	0	32759	
5019	0	32832	
5020	0	32903	
5021	0	32846	
5022	0	32810	
5023	0	32790	
5024	0	32834	
5025	0	32845	
5026	0	32832	
5027	0	32815	
5028	0	32820	
5029	0	32840	
5030	0	32876	
5031	0	32841	
5032	0	32794	
5033	0	32800	
5034	0	32854	
5035	0	32846	
5036	0	32807	
5037	0	32812	
5038	0	32832	
5039	0	32814	
5040	0	32820	
5041	0	32844	
5042	0	32828	
5043	0	32844	
5044	0	32856	
5045	0	32839	
5046	0	32828	
5047	0	32828	
5048	0	32830	
5049	0	32848	
5050	0	32836	
5051	0	32828	
5052	0	32838	
5053	0	32832	
5054	0	32816	
5055	0	32839	
5056	0	32862	
5057	0	32840	
5058	0	32840	
5059	0	32832	
5060	0	32839	
5061	0	32826	
5062	0	32843	
5063	0	32872	
5064	0	32820	
5065	0	32815	
5066	0	32854	
5067	0	32834	
5068	0	32805	
5069	0	32828	
5070	0	32821	
5071	0	32792	
5072	0	32844	
5073	0	32824	
5074	0	32844	
5075	0	32823	
5076	0	32832	
5077	0	32832	
5078	0	32848	
5079	0	32844	
5080	0	32830	
5081	0	32800	
5082	0	32832	
5083	0	32868	
5084	0	32850	
5085	0	32819	
5086	0	32826	
5087	0	32802	
5088	0	32853	
5089	0	32852	
5090	0	32836	
5091	0	32846	
5092	0	32826	
5093	0	32844	
5094	0	32832	
5095	0	32829	
5096	0	32796	
5097	0	32821	
5098	0	32852	
5099	0	32824	
5100	0	32832	
5101	0	32822	
5102	0	32806	
5103	0	32823	
5104	0	32838	
5105	0	32816	
5106	0	32836	
5107	0	32840	
5108	0	32820	
5109	0	32832	
5110	0	32852	
5111	0	32809	
5112	0	32823	
5113	0	32812	
5114	0	32840	
5115	0	32836	
5116	0	32818	
5117	0	32784	
5118	0	32816	
5119	0	32848	
5120	0	32872	
5121	0	32848	
5122	0	32743	
5123	0	32820	
5124	0	32868	
5125	0	32841	
5126	0	32870	
5127	0	32864	
5128	0	32816	
5129	0	32832	
5130	0	32799	
5131	0	32815	
5132	0	32838	
5133	0	32844	
5134	0	32814	
5135	0	32824	
5136	0	32824	
5137	0	32815	
5138	0	32862	
5139	0	32852	
5140	0	32856	
5141	0	32837	
5142	0	32792	
5143	0	32848	
5144	0	32844	
5145	0	32806	
5146	0	32821	
5147	0	32848	
5148	0	32870	
5149	0	32874	
5150	0	32800	
5151	0	32832	
5152	0	32806	
5153	0	32784	
5154	0	32804	
5155	0	32839	
5156	0	32892	
5157	0	32784	
5158	0	32772	
5159	0	32848	
5160	0	32811	
5161	0	32764	
5162	0	32782	
5163	0	32840	
5164	0	32892	
5165	0	32792	
5166	0	32722	
5167	0	32916	
5168	0	32891	
5169	0	32744	
5170	0	32766	
5171	0	32866	
5172	0	32938	
5173	0	32887	
5174	0	32728	
5175	0	32876	
5176	0	32877	
5177	0	32766	
5178	0	32804	
5179	0	32856	
5180	0	32876	
5181	0	32860	
5182	0	32758	
5183	0	32834	
5184	0	32902	
5185	0	32804	
5186	0	32794	
5187	0	32871	
5188	0	32901	
5189	0	32872	
5190	0	32792	
5191	0	32720	
5192	0	32864	
5193	0	32888	
5194	0	32774	
5195	0	32780	
5196	0	32876	
5197	0	32898	
5198	0	32830	
5199	0	32716	
5200	0	32838	
5201	0	32866	
5202	0	32748	
5203	0	32818	
5204	0	32900	
5205	0	32928	
5206	0	32872	
5207	0	32720	
5208	0	32830	
5209	0	32884	
5210	0	32750	
5211	0	32742	
5212	0	32867	
5213	0	32918	
5214	0	32880	
5215	0	32704	
5216	0	32844	
5217	0	32911	
5218	0	32744	
5219	0	32776	
5220	0	32910	
5221	0	32928	
5222	0	32853	
5223	0	32716	
5224	0	32832	
5225	0	32917	
5226	0	32770	
5227	0	32770	
5228	0	32894	
5229	0	32936	
5230	0	32822	
5231	0	32751	
5232	0	32868	
5233	0	32878	
5234	0	32768	
5235	0	32816	
5236	0	32872	
5237	0	32938	
5238	0	32768	
5239	0	32720	
5240	0	32912	
5241	0	32839	
5242	0	32744	
5243	0	32804	
5244	0	32902	
5245	0	32951	
5246	0	32688	
5247	0	32784	
5248	0	32879	
5249	0	32808	
5250	0	32759	
5251	0	32864	
5252	0	32942	
5253	0	32823	
5254	0	32664	
5255	0	32821	
5256	0	32926	
5257	0	32848	
5258	0	32790	
5259	0	32884	
5260	0	32972	
5261	0	32722	
5262	0	32710	
5263	0	32880	
5264	0	32896	
5265	0	32804	
5266	0	32864	
5267	0	32934	
5268	0	32824	
5269	0	32648	
5270	0	32822	
5271	0	32840	
5272	0	32892	
5273	0	32884	
5274	0	32909	
5275	0	32954	
5276	0	32640	
5277	0	32756	
5278	0	32844	
5279	0	32812	
5280	0	32855	
5281	0	32922	
5282	0	32976	
5283	0	32722	
5284	0	32652	
5285	0	32866	
5286	0	32790	
5287	0	32798	
5288	0	32878	
5289	0	32992	
5290	0	32950	
5291	0	32606	
5292	0	32816	
5293	0	32808	
5294	0	32780	
5295	0	32844	
5296	0	32970	
5297	0	32988	
5298	0	32720	
5299	0	32720	
5300	0	32905	
5301	0	32770	
5302	0	32798	
5303	0	32904	
5304	0	32996	
5305	0	32860	
5306	0	32584	
5307	0	32864	
5308	0	32840	
5309	0	32768	
5310	0	32802	
5311	0	32930	
5312	0	32983	
5313	0	32560	
5314	0	32736	
5315	0	32932	
5316	0	32816	
5317	0	32807	
5318	0	32864	
5319	0	33016	
5320	0	32831	
5321	0	32588	
5322	0	32775	
5323	0	32856	
5324	0	32774	
5325	0	32824	
5326	0	32902	
5327	0	32960	
5328	0	32682	
5329	0	32656	
5330	0	32876	
5331	0	32866	
5332	0	32832	
5333	0	32876	
5334	0	32940	
5335	0	32902	
5336	0	32592	
5337	0	32738	
5338	0	32836	
5339	0	32828	
5340	0	32820	
5341	0	32909	
5342	0	33020	
5343	0	32704	
5344	0	32640	
5345	0	32852	
5346	0	32892	
5347	0	32849	
5348	0	32866	
5349	0	32964	
5350	0	32911	
5351	0	32600	
5352	0	32702	
5353	0	32896	
5354	0	32896	
5355	0	32854	
5356	0	32878	
5357	0	32982	
5358	0	32740	
5359	0	32687	
5360	0	32804	
5361	0	32888	
5362	0	32826	
5363	0	32840	
5364	0	32983	
5365	0	32880	
5366	0	32618	
5367	0	32752	
5368	0	32848	
5369	0	32828	
5370	0	32882	
5371	0	32934	
5372	0	32998	
5373	0	32708	
5374	0	32672	
5375	0	32820	
5376	0	32884	
5377	0	32832	
5378	0	32864	
5379	0	33000	
5380	0	32951	
5381	0	32575	
5382	0	32739	
5383	0	32872	
5384	0	32860	
5385	0	32800	
5386	0	32938	
5387	0	33020	
5388	0	32764	
5389	0	32589	
5390	0	32872	
5391	0	32870	
5392	0	32800	
5393	0	32838	
5394	0	32944	
5395	0	32962	
5396	0	32692	
5397	0	32600	
5398	0	32904	
5399	0	32856	
5400	0	32757	
5401	0	32832	
5402	0	32944	
5403	0	32930	
5404	0	32644	
5405	0	32659	
5406	0	32912	
5407	0	32880	
5408	0	32786	
5409	0	32887	
5410	0	32965	
5411	0	32859	
5412	0	32716	
5413	0	32716	
5414	0	32899	
5415	0	32904	
5416	0	32740	
5417	0	32868	
5418	0	32902	
5419	0	32807	
5420	0	32852	
5421	0	32692	
5422	0	32894	
5423	0	32902	
5424	0	32792	
5425	0	32846	
5426	0	32800	
5427	0	32820	
5428	0	32848	
5429	0	32816	
5430	0	32801	
5431	0	32934	
5432	0	32804	
5433	0	32732	
5434	0	32744	
5435	0	32838	
5436	0	32844	
5437	0	32908	
5438	0	32804	
5439	0	32900	
5440	0	32836	
5441	0	32596	
5442	0	32728	
5443	0	32792	
5444	0	32952	
5445	0	32896	
5446	0	32909	
5447	0	32816	
5448	0	32813	
5449	0	32740	
5450	0	32760	
5451	0	32794	
5452	0	32868	
5453	0	32900	
5454	0	32886	
5455	0	32876	
5456	0	32774	
5457	0	32744	
5458	0	32768	
5459	0	32860	
5460	0	32824	
5461	0	32836	
5462	0	32948	
5463	0	32884	
5464	0	32804	
5465	0	32804	
5466	0	32784	
5467	0	32844	
5468	0	32804	
5469	0	32840	
5470	0	32894	
5471	0	32808	
5472	0	32784	
5473	0	32784	
5474	0	32800	
5475	0	32796	
5476	0	32810	
5477	0	32832	
5478	0	32840	
5479	0	32806	
5480	0	32828	
5481	0	32807	
5482	0	32794	
5483	0	32808	
5484	0	32838	
5485	0	32854	
5486	0	32792	
5487	0	32808	
5488	0	32776	
5489	0	32884	
5490	0	32836	
5491	0	32863	
5492	0	32816	
5493	0	32870	
5494	0	32828	
5495	0	32879	
5496	0	32820	
5497	0	32880	
5498	0	32844	
5499	0	32810	
5500	0	32786	
5501	0	32799	
5502	0	32788	
5503	0	32804	
5504	0	32885	
5505	0	32866	
5506	0	32826	
5507	0	32800	
5508	0	32808	
5509	0	32824	
5510	0	32790	
5511	0	32870	
5512	0	32868	
5513	0	32842	
5514	0	32841	
5515	0	32812	
5516	0	32832	
5517	0	32836	
5518	0	32804	
5519	0	32844	
5520	0	32872	
5521	0	32848	
5522	0	32863	
5523	0	32784	
5524	0	32804	
5525	0	32777	
5526	0	32777	
5527	0	32820	
5528	0	32868	
5529	0	32844	
5530	0	32802	
5531	0	32843	
5532	0	32782	
5533	0	32808	
5534	0	32830	
5535	0	32830	
5536	0	32876	
5537	0	32868	
5538	0	32802	
5539	0	32870	
5540	0	32792	
5541	0	32816	
5542	0	32869	
5543	0	32866	
5544	0	32864	
5545	0	32836	
5546	0	32870	
5547	0	32800	
5548	0	32756	
5549	0	32813	
5550	0	32850	
5551	0	32820	
5552	0	32844	
5553	0	32832	
5554	0	32879	
5555	0	32812	
5556	0	32820	
5557	0	32810	
5558	0	32848	
5559	0	32822	
5560	0	32830	
5561	0	32848	
5562	0	32832	
5563	0	32864	
5564	0	32832	
5565	0	32848	
5566	0	32723	
5567	0	32775	
5568	0	32791	
5569	0	32851	
5570	0	32864	
5571	0	32852	
5572	0	32848	
5573	0	32868	
5574	0	32832	
5575	0	32791	
5576	0	32771	
5577	0	32818	
5578	0	32840	
5579	0	32879	
5580	0	32876	
5581	0	32763	
5582	0	32744	
5583	0	32764	
5584	0	32855	
5585	0	32871	
5586	0	32905	
5587	0	32703	
5588	0	32812	
5589	0	32799	
5590	0	32832	
5591	0	32736	
5592	0	32840	
5593	0	32864	
5594	0	32882	
5595	0	32992	
5596	0	32878	
5597	0	32820	
5598	0	32840	
5599	0	32778	
5600	0	32865	
5601	0	32808	
5602	0	32864	
5603	0	32916	
5604	0	32582	
5605	0	32784	
5606	0	32850	
5607	0	32840	
5608	0	32792	
5609	0	32814	
5610	0	32838	
5611	0	32804	
5612	0	32936	
5613	0	32780	
5614	0	32949	
5615	0	32912	
5616	0	32800	
5617	0	32712	
5618	0	32800	
5619	0	32900	
5620	0	32828	
5621	0	32944	
5622	0	32954	
5623	0	32792	
5624	0	32756	
5625	0	32756	
5626	0	32830	
5627	0	32892	
5628	0	32896	
5629	0	32946	
5630	0	32656	
5631	0	32739	
5632	0	32735	
5633	0	32789	
5634	0	32757	
5635	0	32858	
5636	0	32852	
5637	0	32775	
5638	0	32950	
5639	0	32896	
5640	0	32884	
5641	0	32824	
5642	0	32788	
5643	0	32788	
5644	0	32791	
5645	0	32884	
5646	0	32927	
5647	0	32616	
5648	0	32746	
5649	0	32822	
5650	0	32812	
5651	0	32812	
5652	0	32824	
5653	0	32874	
5654	0	32853	
5655	0	32848	
5656	0	32800	
5657	0	32736	
5658	0	32664	
5659	0	32830	
5660	0	32860	
5661	0	32832	
5662	0	32887	
5663	0	32944	
5664	0	32904	
5665	0	32892	
5666	0	32770	
5667	0	32743	
5668	0	32834	
5669	0	32884	
5670	0	32931	
5671	0	32902	
5672	0	32926	
5673	0	32832	
5674	0	32788	
5675	0	32752	
5676	0	32876	
5677	0	32876	
5678	0	32896	
5679	0	32824	
5680	0	32838	
5681	0	32804	
5682	0	32800	
5683	0	32806	
5684	0	32859	
5685	0	32852	
5686	0	32868	
5687	0	32692	
5688	0	32731	
5689	0	32850	
5690	0	32848	
5691	0	32760	
5692	0	32862	
5693	0	32928	
5694	0	32908	
5695	0	32777	
5696	0	32836	
5697	0	32808	
5698	0	32868	
5699	0	32821	
5700	0	32918	
5701	0	32884	
5702	0	32710	
5703	0	32839	
5704	0	32849	
5705	0	32853	
5706	0	32836	
5707	0	32864	
5708	0	32858	
5709	0	32746	
5710	0	32813	
5711	0	32832	
5712	0	32836	
5713	0	32834	
5714	0	32868	
5715	0	32855	
5716	0	32722	
5717	0	32800	
5718	0	32812	
5719	0	32864	
5720	0	32832	
5721	0	32878	
5722	0	32856	
5723	0	32712	
5724	0	32812	
5725	0	32782	
5726	0	32860	
5727	0	32840	
5728	0	32894	
5729	0	32864	
5730	0	32792	
5731	0	32824	
5732	0	32804	
5733	0	32852	
5734	0	32703	
5735	0	32896	
5736	0	32808	
5737	0	32872	
5738	0	32875	
5739	0	32854	
5740	0	32814	
5741	0	32751	
5742	0	32816	
5743	0	32839	
5744	0	32856	
5745	0	32870	
5746	0	32880	
5747	0	32886	
5748	0	32818	
5749	0	32807	
5750	0	32817	
5751	0	32874	
5752	0	32856	
5753	0	32847	
5754	0	32840	
5755	0	32851	
5756	0	32852	
5757	0	32838	
5758	0	32754	
5759	0	32807	
5760	0	32838	
5761	0	32858	
5762	0	32884	
5763	0	32847	
5764	0	32804	
5765	0	32831	
5766	0	32792	
5767	0	32794	
5768	0	32900	
5769	0	32868	
5770	0	32804	
5771	0	32824	
5772	0	32884	
5773	0	32788	
5774	0	32840	
5775	0	32836	
5776	0	32807	
5777	0	32800	
5778	0	32775	
5779	0	32844	
5780	0	32887	
5781	0	32832	
5782	0	32788	
5783	0	32794	
5784	0	32805	
5785	0	32832	
5786	0	32796	
5787	0	32800	
5788	0	32884	
5789	0	32895	
5790	0	32822	
5791	0	32770	
5792	0	32828	
5793	0	32843	
5794	0	32860	
5795	0	32800	
5796	0	32876	
5797	0	32864	
5798	0	32852	
5799	0	32846	
5800	0	32816	
5801	0	32800	
5802	0	32840	
5803	0	32836	
5804	0	32870	
5805	0	32860	
5806	0	32848	
5807	0	32814	
5808	0	32794	
5809	0	32823	
5810	0	32805	
5811	0	32846	
5812	0	32816	
5813	0	32859	
5814	0	32811	
5815	0	32852	
5816	0	32836	
5817	0	32816	
5818	0	32815	
5819	0	32832	
5820	0	32831	
5821	0	32866	
5822	0	32826	
5823	0	32836	
5824	0	32870	
5825	0	32796	
5826	0	32832	
5827	0	32834	
5828	0	32858	
5829	0	32864	
5830	0	32820	
5831	0	32820	
5832	0	32792	
5833	0	32840	
5834	0	32828	
5835	0	32827	
5836	0	32855	
5837	0	32800	
5838	0	32805	
5839	0	32832	
5840	0	32810	
5841	0	32816	
5842	0	32834	
5843	0	32850	
5844	0	32820	
5845	0	32812	
5846	0	32818	
5847	0	32836	
5848	0	32832	
5849	0	32832	
5850	0	32842	
5851	0	32843	
5852	0	32842	
5853	0	32816	
5854	0	32820	
5855	0	32815	
5856	0	32818	
5857	0	32858	
5858	0	32804	
5859	0	32822	
5860	0	32840	
5861	0	32844	
5862	0	32820	
5863	0	32847	
5864	0	32868	
5865	0	32808	
5866	0	32832	
5867	0	32852	
5868	0	32856	
5869	0	32844	
5870	0	32832	
5871	0	32808	
5872	0	32832	
5873	0	32800	
5874	0	32838	
5875	0	32804	
5876	0	32808	
5877	0	32864	
5878	0	32842	
5879	0	32832	
5880	0	32781	
5881	0	32814	
5882	0	32836	
5883	0	32838	
5884	0	32812	
5885	0	32834	
5886	0	32846	
5887	0	32848	
5888	0	32829	
5889	0	32852	
5890	0	32864	
5891	0	32808	
5892	0	32808	
5893	0	32852	
5894	0	32813	
5895	0	32856	
5896	0	32768	
5897	0	32804	
5898	0	32784	
5899	0	32844	
5900	0	32812	
5901	0	32779	
5902	0	32824	
5903	0	32848	
5904	0	32844	
5905	0	32822	
5906	0	32847	
5907	0	32828	
5908	0	32894	
5909	0	32826	
5910	0	32800	
5911	0	32832	
5912	0	32862	
5913	0	32836	
5914	0	32808	
5915	0	32839	
5916	0	32832	
5917	0	32808	
5918	0	32823	
5919	0	32800	
5920	0	32878	
5921	0	32812	
5922	0	32832	
5923	0	32834	
5924	0	32816	
5925	0	32820	
5926	0	32768	
5927	0	32832	
5928	0	32822	
5929	0	32844	
5930	0	32808	
5931	0	32846	
5932	0	32868	
5933	0	32824	
5934	0	32796	
5935	0	32814	
5936	0	32846	
5937	0	32876	
5938	0	32828	
5939	0	32808	
5940	0	32830	
5941	0	32824	
5942	0	32832	
5943	0	32836	
5944	0	32807	
5945	0	32871	
5946	0	32858	
5947	0	32824	
5948	0	32795	
5949	0	32832	
5950	0	32836	
5951	0	32840	
5952	0	32836	
5953	0	32864	
5954	0	32818	
5955	0	32814	
5956	0	32840	
5957	0	32832	
5958	0	32838	
5959	0	32816	
5960	0	32830	
5961	0	32864	
5962	0	32802	
5963	0	32830	
5964	0	32767	
5965	0	32852	
5966	0	32832	
5967	0	32800	
5968	0	32816	
5969	0	32840	
5970	0	32879	
5971	0	32875	
5972	0	32848	
5973	0	32818	
5974	0	32858	
5975	0	32828	
5976	0	32858	
5977	0	32800	
5978	0	32778	
5979	0	32820	
5980	0	32831	
5981	0	32840	
5982	0	32866	
5983	0	32820	
5984	0	32814	
5985	0	32806	
5986	0	32844	
5987	0	32872	
5988	0	32836	
5989	0	32812	
5990	0	32828	
5991	0	32896	
5992	0	32848	
5993	0	32804	
5994	0	32810	
5995	0	32816	
5996	0	32816	
5997	0	32832	
5998	0	32832	
5999	0	32844	
6000	0	32834	
6001	0	32826	
6002	0	32828	
6003	0	32815	
6004	0	32828	
6005	0	32806	
6006	0	32795	
6007	0	32832	
6008	0	32792	
6009	0	32820	
6010	0	32848	
6011	0	32840	
6012	0	32832	
6013	0	32805	
6014	0	32844	
6015	0	32829	
6016	0	32840	
6017	0	32831	
6018	0	32830	
6019	0	32834	
6020	0	32806	
6021	0	32832	
6022	0	32828	
6023	0	32846	
6024	0	32864	
6025	0	32816	
6026	0	32828	
6027	0	32812	
6028	0	32816	
6029	0	32848	
6030	0	32818	
6031	0	32844	
6032	0	32840	
6033	0	32847	
6034	0	32815	
6035	0	32839	
6036	0	32852	
6037	0	32848	
6038	0	32859	
6039	0	32846	
6040	0	32836	
6041	0	32836	
6042	0	32834	
6043	0	32808	
6044	0	32818	
6045	0	32849	
6046	0	32840	
6047	0	32836	
6048	0	32807	
6049	0	32846	
6050	0	32815	
6051	0	32836	
6052	0	32832	
6053	0	32832	
6054	0	32820	
6055	0	32834	
6056	0	32862	
6057	0	32824	
6058	0	32800	
6059	0	32817	
6060	0	32839	
6061	0	32839	
6062	0	32832	
6063	0	32832	
6064	0	32834	
6065	0	32743	
6066	0	32834	
6067	0	32806	
6068	0	32800	
6069	0	32760	
6070	0	32812	
6071	0	32852	
6072	0	32834	
6073	0	32814	
6074	0	32816	
6075	0	32813	
6076	0	32865	
6077	0	32840	
6078	0	32784	
6079	0	32804	
6080	0	32886	
6081	0	32820	
6082	0	32816	
6083	0	32844	
6084	0	32870	
6085	0	32836	
6086	0	32822	
6087	0	32796	
6088	0	32828	
6089	0	32878	
6090	0	32872	
6091	0	32864	
6092	0	32850	
6093	0	32826	
6094	0	32812	
6095	0	32848	
6096	0	32856	
6097	0	32832	
6098	0	32824	
6099	0	32822	
6100	0	32806	
6101	0	32832	
6102	0	32828	
6103	0	32840	
6104	0	32831	
6105	0	32836	
6106	0	32840	
6107	0	32806	
6108	0	32814	
6109	0	32834	
6110	0	32796	
6111	0	32800	
6112	0	32852	
6113	0	32895	
6114	0	32828	
6115	0	32795	
6116	0	32808	
6117	0	32788	
6118	0	32885	
6119	0	32845	
6120	0	32856	
6121	0	32828	
6122	0	32800	
6123	0	32896	
6124	0	32847	
6125	0	32836	
6126	0	32864	
6127	0	32841	
6128	0	32864	
6129	0	32812	
6130	0	32819	
6131	0	32804	
6132	0	32832	
6133	0	32792	
6134	0	32887	
6135	0	32842	
6136	0	32808	
6137	0	32812	
6138	0	32823	
6139	0	32842	
6140	0	32812	
6141	0	32816	
6142	0	32826	
6143	0	32880	
6144	0	32848	
6145	0	32778	
6146	0	32850	
6147	0	32804	
6148	0	32880	
6149	0	32753	
6150	0	32847	
6151	0	32828	
6152	0	32800	
6153	0	32790	
6154	0	32768	
6155	0	32884	
6156	0	32794	
6157	0	32887	
6158	0	32816	
6159	0	32812	
6160	0	32839	
6161	0	32834	
6162	0	32831	
6163	0	32776	
6164	0	32913	
6165	0	32863	
6166	0	32768	
6167	0	32850	
6168	0	32852	
6169	0	32831	
6170	0	32808	
6171	0	32936	
6172	0	32800	
6173	0	32773	
6174	0	32895	
6175	0	32832	
6176	0	32735	
6177	0	32768	
6178	0	32947	
6179	0	32765	
6180	0	32842	
6181	0	32883	
6182	0	32800	
6183	0	32756	
6184	0	32832	
6185	0	32834	
6186	0	32866	
6187	0	32736	
6188	0	32884	
6189	0	32856	
6190	0	32806	
6191	0	32784	
6192	0	32836	
6193	0	32854	
6194	0	32866	
6195	0	32838	
6196	0	32762	
6197	0	32864	
6198	0	32768	
6199	0	32918	
6200	0	32878	
6201	0	32857	
6202	0	32784	
6203	0	32812	
6204	0	32798	
6205	0	32814	
6206	0	32887	
6207	0	32868	
6208	0	32774	
6209	0	32827	
6210	0	32848	
6211	0	32844	
6212	0	32773	
6213	0	32904	
6214	0	32772	
6215	0	32840	
6216	0	32832	
6217	0	32919	
6218	0	32772	
6219	0	32866	
6220	0	32832	
6221	0	32813	
6222	0	32788	
6223	0	32936	
6224	0	32760	
6225	0	32864	
6226	0	32774	
6227	0	32864	
6228	0	32728	
6229	0	32943	
6230	0	32844	
6231	0	32807	
6232	0	32800	
6233	0	32848	
6234	0	32796	
6235	0	32860	
6236	0	32912	
6237	0	32754	
6238	0	32840	
6239	0	32819	
6240	0	32832	
6241	0	32792	
6242	0	32895	
6243	0	32780	
6244	0	32868	
6245	0	32762	
6246	0	32900	
6247	0	32800	
6248	0	32976	
6249	0	32760	
6250	0	32846	
6251	0	32767	
6252	0	32868	
6253	0	32772	
6254	0	32916	
6255	0	32800	
6256	0	32830	
6257	0	32750	
6258	0	32960	
6259	0	32756	
6260	0	32908	
6261	0	32900	
6262	0	32744	
6263	0	32790	
6264	0	32888	
6265	0	32856	
6266	0	32876	
6267	0	32900	
6268	0	32752	
6269	0	32848	
6270	0	32844	
6271	0	32839	
6272	0	32830	
6273	0	32784	
6274	0	32845	
6275	0	32840	
6276	0	32810	
6277	0	32876	
6278	0	32840	
6279	0	32783	
6280	0	32812	
6281	0	32842	
6282	0	32738	
6283	0	32824	
6284	0	32887	
6285	0	32870	
6286	0	32770	
6287	0	32857	
6288	0	32775	
6289	0	32838	
6290	0	32828	
6291	0	32906	
6292	0	32807	
6293	0	32851	
6294	0	32844	
6295	0	32792	
6296	0	32832	
6297	0	32880	
6298	0	32838	
6299	0	32800	
6300	0	32810	
6301	0	32864	
6302	0	32820	
6303	0	32855	
6304	0	32792	
6305	0	32806	
6306	0	32772	
6307	0	32826	
6308	0	32826	
6309	0	32879	
6310	0	32879	
6311	0	32757	
6312	0	32844	
6313	0	32780	
6314	0	32862	
6315	0	32874	
6316	0	32896	
6317	0	32790	
6318	0	32832	
6319	0	32864	
6320	0	32824	
6321	0	32914	
6322	0	32860	
6323	0	32806	
6324	0	32806	
6325	0	32858	
6326	0	32812	
6327	0	32856	
6328	0	32812	
6329	0	32812	
6330	0	32764	
6331	0	32876	
6332	0	32868	
6333	0	32884	
6334	0	32808	
6335	0	32793	
6336	0	32796	
6337	0	32810	
6338	0	32896	
6339	0	32874	
6340	0	32839	
6341	0	32772	
6342	0	32816	
6343	0	32820	
6344	0	32850	
6345	0	32884	
6346	0	32834	
6347	0	32752	
6348	0	32820	
6349	0	32770	
6350	0	32836	
6351	0	32824	
6352	0	32868	
6353	0	32756	
6354	0	32800	
6355	0	32848	
6356	0	32776	
6357	0	32920	
6358	0	32832	
6359	0	32795	
6360	0	32772	
6361	0	32821	
6362	0	32756	
6363	0	32900	
6364	0	32868	
6365	0	32792	
6366	0	32796	
6367	0	32832	
6368	0	32836	
6369	0	32808	
6370	0	32840	
6371	0	32800	
6372	0	32811	
6373	0	32834	
6374	0	32844	
6375	0	32832	
6376	0	32816	
6377	0	32832	
6378	0	32832	
6379	0	32800	
6380	0	32857	
6381	0	32800	
6382	0	32788	
6383	0	32840	
6384	0	32840	
6385	0	32814	
6386	0	32822	
6387	0	32860	
6388	0	32826	
6389	0	32810	
6390	0	32803	
6391	0	32815	
6392	0	32837	
6393	0	32848	
6394	0	32834	
6395	0	32832	
6396	0	32837	
6397	0	32844	
6398	0	32816	
6399	0	32871	
6400	0	32880	
6401	0	32816	
6402	0	32797	
6403	0	32806	
6404	0	32832	
6405	0	32842	
6406	0	32830	
6407	0	32804	
6408	0	32820	
6409	0	32850	
6410	0	32844	
6411	0	32801	
6412	0	32817	
6413	0	32832	
6414	0	32842	
6415	0	32812	
6416	0	32852	
6417	0	32816	
6418	0	32838	
6419	0	32792	
6420	0	32850	
6421	0	32820	
6422	0	32880	
6423	0	32800	
6424	0	32880	
6425	0	32817	
6426	0	32861	
6427	0	32810	
6428	0	32868	
6429	0	32812	
6430	0	32832	
6431	0	32844	
6432	0	32804	
6433	0	32792	
6434	0	32854	
6435	0	32808	
6436	0	32824	
6437	0	32856	
6438	0	32788	
6439	0	32777	
6440	0	32808	
6441	0	32875	
6442	0	32852	
6443	0	32820	
6444	0	32795	
6445	0	32820	
6446	0	32807	
6447	0	32823	
6448	0	32852	
6449	0	32807	
6450	0	32800	
6451	0	32870	
6452	0	32852	
6453	0	32840	
6454	0	32792	
6455	0	32814	
6456	0	32800	
6457	0	32874	
6458	0	32868	
6459	0	32816	
6460	0	32828	
6461	0	32848	
6462	0	32846	
6463	0	32837	
6464	0	32810	
6465	0	32840	
6466	0	32848	
6467	0	32827	
6468	0	32832	
6469	0	32862	
6470	0	32822	
6471	0	32831	
6472	0	32838	
6473	0	32836	
6474	0	32844	
6475	0	32825	
6476	0	32790	
6477	0	32886	
6478	0	32844	
6479	0	32743	
6480	0	32836	
6481	0	32816	
6482	0	32814	
6483	0	32840	
6484	0	32823	
6485	0	32832	
6486	0	32764	
6487	0	32820	
6488	0	32836	
6489	0	32828	
6490	0	32836	
6491	0	32862	
6492	0	32768	
6493	0	32844	
6494	0	32832	
6495	0	32846	
6496	0	32806	
6497	0	32824	
6498	0	32820	
6499	0	32768	
6500	0	32872	
6501	0	32837	
6502	0	32850	
6503	0	32807	
6504	0	32855	
6505	0	32830	
6506	0	32832	
6507	0	32800	
6508	0	32820	
6509	0	32822	
6510	0	32862	
6511	0	32806	
6512	0	32842	
6513	0	32800	
6514	0	32852	
6515	0	32824	
6516	0	32864	
6517	0	32838	
6518	0	32816	
6519	0	32790	
6520	0	32864	
6521	0	32832	
6522	0	32802	
6523	0	32824	
6524	0	32832	
6525	0	32820	
6526	0	32820	
6527	0	32808	
6528	0	32816	
6529	0	32858	
6530	0	32843	
6531	0	32852	
6532	0	32800	
6533	0	32792	
6534	0	32794	
6535	0	32834	
6536	0	32845	
6537	0	32864	
6538	0	32844	
6539	0	32800	
6540	0	32806	
6541	0	32816	
6542	0	32840	
6543	0	32810	
6544	0	32852	
6545	0	32864	
6546	0	32840	
6547	0	32864	
6548	0	32820	
6549	0	32820	
6550	0	32808	
6551	0	32844	
6552	0	32814	
6553	0	32800	
6554	0	32840	
6555	0	32816	
6556	0	32824	
6557	0	32767	
6558	0	32840	
6559	0	32806	
6560	0	32836	
6561	0	32858	
6562	0	32768	
6563	0	32856	
6564	0	32876	
6565	0	32832	
6566	0	32840	
6567	0	32842	
6568	0	32816	
6569	0	32832	
6570	0	32864	
6571	0	32843	
6572	0	32868	
6573	0	32848	
6574	0	32812	
6575	0	32800	
6576	0	32759	
6577	0	32836	
6578	0	32814	
6579	0	32836	
6580	0	32839	
6581	0	32776	
6582	0	32832	
6583	0	32815	
6584	0	32804	
6585	0	32778	
6586	0	32784	
6587	0	32860	
6588	0	32814	
6589	0	32849	
6590	0	32880	
6591	0	32850	
6592	0	32864	
6593	0	32848	
6594	0	32840	
6595	0	32864	
6596	0	32834	
6597	0	32852	
6598	0	32852	
6599	0	32840	
6600	0	32807	
6601	0	32801	
6602	0	32800	
6603	0	32802	
6604	0	32829	
6605	0	32792	
6606	0	32824	
6607	0	32866	
6608	0	32868	
6609	0	32816	
6610	0	32823	
6611	0	32824	
6612	0	32844	
6613	0	32896	
6614	0	32822	
6615	0	32818	
6616	0	32824	
6617	0	32816	
6618	0	32808	
6619	0	32832	
6620	0	32836	
6621	0	32824	
6622	0	32839	
6623	0	32804	
6624	0	32800	
6625	0	32812	
6626	0	32840	
6627	0	32792	
6628	0	32832	
6629	0	32828	
6630	0	32848	
6631	0	32844	
6632	0	32829	
6633	0	32872	
6634	0	32816	
6635	0	32788	
6636	0	32813	
6637	0	32828	
6638	0	32902	
6639	0	32842	
6640	0	32847	
6641	0	32816	
6642	0	32800	
6643	0	32804	
6644	0	32848	
6645	0	32834	
6646	0	32848	
6647	0	32824	
6648	0	32820	
6649	0	32842	
6650	0	32796	
6651	0	32804	
6652	0	32824	
6653	0	32845	
6654	0	32819	
6655	0	32816	
6656	0	32800	
6657	0	32812	
6658	0	32836	
6659	0	32808	
6660	0	32804	
6661	0	32856	
6662	0	32836	
6663	0	32845	
6664	0	32832	
6665	0	32816	
6666	0	32792	
6667	0	32836	
6668	0	32836	
6669	0	32872	
6670	0	32844	
6671	0	32850	
6672	0	32852	
6673	0	32852	
6674	0	32840	
6675	0	32832	
6676	0	32774	
6677	0	32838	
6678	0	32840	
6679	0	32861	
6680	0	32844	
6681	0	32836	
6682	0	32816	
6683	0	32832	
6684	0	32758	
6685	0	32836	
6686	0	32874	
6687	0	32828	
6688	0	32822	
6689	0	32806	
6690	0	32864	
6691	0	32876	
6692	0	32844	
6693	0	32820	
6694	0	32814	
6695	0	32780	
6696	0	32800	
6697	0	32822	
6698	0	32900	
6699	0	32776	
6700	0	32800	
6701	0	32834	
6702	0	32828	
6703	0	32820	
6704	0	32822	
6705	0	32864	
6706	0	32904	
6707	0	32840	
6708	0	32815	
6709	0	32824	
6710	0	32796	
6711	0	32860	
6712	0	32824	
6713	0	32806	
6714	0	32820	
6715	0	32850	
6716	0	32864	
6717	0	32808	
6718	0	32832	
6719	0	32800	
6720	0	32808	
6721	0	32826	
6722	0	32841	
6723	0	32848	
6724	0	32860	
6725	0	32830	
6726	0	32836	
6727	0	32800	
6728	0	32814	
6729	0	32815	
6730	0	32823	
6731	0	32858	
6732	0	32836	
6733	0	32814	
6734	0	32813	
6735	0	32836	
6736	0	32867	
6737	0	32836	
6738	0	32818	
6739	0	32846	
6740	0	32863	
6741	0	32866	
6742	0	32828	
6743	0	32843	
6744	0	32828	
6745	0	32806	
6746	0	32816	
6747	0	32836	
6748	0	32824	
6749	0	32855	
6750	0	32826	
6751	0	32837	
6752	0	32828	
6753	0	32830	
6754	0	32828	
6755	0	32814	
6756	0	32822	
6757	0	32850	
6758	0	32852	
6759	0	32830	
6760	0	32842	
6761	0	32812	
6762	0	32824	
6763	0	32785	
6764	0	32872	
6765	0	32864	
6766	0	32855	
6767	0	32832	
6768	0	32822	
6769	0	32814	
6770	0	32925	
6771	0	32910	
6772	0	32828	
6773	0	32836	
6774	0	32844	
6775	0	32775	
6776	0	32816	
6777	0	32792	
6778	0	32826	
6779	0	32852	
6780	0	32924	
6781	0	32928	
6782	0	32832	
6783	0	32795	
6784	0	32778	
6785	0	32739	
6786	0	32830	
6787	0	32816	
6788	0	32825	
6789	0	32867	
6790	0	32958	
6791	0	32886	
6792	0	32782	
6793	0	32720	
6794	0	32810	
6795	0	32712	
6796	0	32896	
6797	0	32832	
6798	0	32823	
6799	0	32856	
6800	0	32932	
6801	0	32860	
6802	0	32800	
6803	0	32724	
6804	0	32808	
6805	0	32736	
6806	0	32840	
6807	0	32816	
6808	0	32819	
6809	0	32878	
6810	0	32912	
6811	0	32920	
6812	0	32828	
6813	0	32736	
6814	0	32772	
6815	0	32820	
6816	0	32854	
6817	0	32828	
6818	0	32788	
6819	0	32825	
6820	0	32900	
6821	0	32918	
6822	0	32848	
6823	0	32716	
6824	0	32740	
6825	0	32852	
6826	0	32844	
6827	0	32834	
6828	0	32773	
6829	0	32856	
6830	0	32884	
6831	0	32924	
6832	0	32888	
6833	0	32708	
6834	0	32752	
6835	0	32808	
6836	0	32856	
6837	0	32844	
6838	0	32768	
6839	0	32848	
6840	0	32864	
6841	0	32940	
6842	0	32872	
6843	0	32800	
6844	0	32696	
6845	0	32828	
6846	0	32855	
6847	0	32868	
6848	0	32775	
6849	0	32767	
6850	0	32864	
6851	0	32928	
6852	0	32876	
6853	0	32828	
6854	0	32704	
6855	0	32828	
6856	0	32856	
6857	0	32856	
6858	0	32846	
6859	0	32784	
6860	0	32848	
6861	0	32928	
6862	0	32916	
6863	0	32810	
6864	0	32710	
6865	0	32840	
6866	0	32838	
6867	0	32880	
6868	0	32784	
6869	0	32812	
6870	0	32866	
6871	0	32948	
6872	0	32900	
6873	0	32704	
6874	0	32798	
6875	0	32816	
6876	0	32826	
6877	0	32828	
6878	0	32799	
6879	0	32772	
6880	0	32866	
6881	0	32930	
6882	0	32864	
6883	0	32647	
6884	0	32788	
6885	0	32768	
6886	0	32928	
6887	0	32836	
6888	0	32771	
6889	0	32828	
6890	0	32948	
6891	0	32962	
6892	0	32764	
6893	0	32718	
6894	0	32744	
6895	0	32788	
6896	0	32894	
6897	0	32772	
6898	0	32816	
6899	0	32876	
6900	0	32967	
6901	0	32922	
6902	0	32688	
6903	0	32807	
6904	0	32740	
6905	0	32876	
6906	0	32812	
6907	0	32802	
6908	0	32803	
6909	0	32948	
6910	0	33002	
6911	0	32776	
6912	0	32728	
6913	0	32736	
6914	0	32847	
6915	0	32898	
6916	0	32788	
6917	0	32816	
6918	0	32876	
6919	0	33006	
6920	0	32930	
6921	0	32720	
6922	0	32786	
6923	0	32760	
6924	0	32932	
6925	0	32682	
6926	0	32784	
6927	0	32816	
6928	0	32970	
6929	0	32976	
6930	0	32728	
6931	0	32780	
6932	0	32688	
6933	0	32878	
6934	0	32820	
6935	0	32802	
6936	0	32808	
6937	0	32900	
6938	0	32956	
6939	0	32760	
6940	0	32800	
6941	0	32768	
6942	0	32850	
6943	0	32840	
6944	0	32762	
6945	0	32808	
6946	0	32846	
6947	0	32980	
6948	0	32704	
6949	0	32772	
6950	0	32766	
6951	0	32854	
6952	0	32900	
6953	0	32812	
6954	0	32836	
6955	0	32855	
6956	0	32968	
6957	0	32718	
6958	0	32846	
6959	0	32732	
6960	0	32839	
6961	0	32927	
6962	0	32810	
6963	0	32864	
6964	0	32894	
6965	0	32966	
6966	0	32623	
6967	0	32852	
6968	0	32712	
6969	0	32868	
6970	0	32868	
6971	0	32756	
6972	0	32842	
6973	0	32910	
6974	0	32916	
6975	0	32727	
6976	0	32888	
6977	0	32726	
6978	0	32883	
6979	0	32776	
6980	0	32823	
6981	0	32892	
6982	0	32982	
6983	0	32748	
6984	0	32711	
6985	0	32716	
6986	0	32788	
6987	0	32824	
6988	0	32844	
6989	0	32870	
6990	0	32872	
6991	0	32944	
6992	0	32672	
6993	0	32841	
6994	0	32752	
6995	0	32824	
6996	0	32852	
6997	0	32880	
6998	0	32864	
6999	0	32909	
7000	0	32908	
7001	0	32720	
7002	0	32840	
7003	0	32760	
7004	0	32872	
7005	0	32826	
7006	0	32832	
7007	0	32916	
7008	0	32898	
7009	0	32822	
7010	0	32746	
7011	0	32748	
7012	0	32824	
7013	0	32892	
7014	0	32854	
7015	0	32808	
7016	0	32832	
7017	0	32904	
7018	0	32801	
7019	0	32790	
7020	0	32760	
7021	0	32806	
7022	0	32871	
7023	0	32863	
7024	0	32817	
7025	0	32840	
7026	0	32828	
7027	0	32743	
7028	0	32828	
7029	0	32828	
7030	0	32864	
7031	0	32826	
7032	0	32852	
7033	0	32887	
7034	0	32858	
7035	0	32856	
7036	0	32826	
7037	0	32824	
7038	0	32823	
7039	0	32848	
7040	0	32818	
7041	0	32828	
7042	0	32919	
7043	0	32884	
7044	0	32803	
7045	0	32806	
7046	0	32780	
7047	0	32855	
7048	0	32877	
7049	0	32824	
7050	0	32804	
7051	0	32872	
7052	0	32869	
7053	0	32820	
7054	0	32832	
7055	0	32792	
7056	0	32828	
7057	0	32826	
7058	0	32828	
7059	0	32768	
7060	0	32854	
7061	0	32868	
7062	0	32924	
7063	0	32818	
7064	0	32800	
7065	0	32816	
7066	0	32838	
7067	0	32870	
7068	0	32790	
7069	0	32832	
7070	0	32808	
7071	0	32856	
7072	0	32814	
7073	0	32812	
7074	0	32860	
7075	0	32864	
7076	0	32844	
7077	0	32794	
7078	0	32760	
7079	0	32814	
7080	0	32880	
7081	0	32834	
7082	0	32912	
7083	0	32870	
7084	0	32878	
7085	0	32768	
7086	0	32800	
7087	0	32688	
7088	0	32839	
7089	0	32920	
7090	0	32888	
7091	0	32904	
7092	0	32791	
7093	0	32820	
7094	0	32736	
7095	0	32800	
7096	0	32828	
7097	0	32920	
7098	0	32967	
7099	0	32840	
7100	0	32737	
7101	0	32772	
7102	0	32812	
7103	0	32799	
7104	0	32800	
7105	0	32909	
7106	0	32904	
7107	0	32800	
7108	0	32834	
7109	0	32800	
7110	0	32876	
7111	0	32846	
7112	0	32930	
7113	0	32849	
7114	0	32768	
7115	0	32799	
7116	0	32816	
7117	0	32911	
7118	0	32892	
7119	0	32926	
7120	0	32768	
7121	0	32864	
7122	0	32810	
7123	0	32760	
7124	0	32861	
7125	0	32888	
7126	0	32952	
7127	0	32700	
7128	0	32850	
7129	0	32775	
7130	0	32856	
7131	0	32860	
7132	0	32837	
7133	0	32964	
7134	0	32608	
7135	0	32888	
7136	0	32720	
7137	0	32832	
7138	0	32816	
7139	0	32832	
7140	0	32944	
7141	0	32645	
7142	0	32896	
7143	0	32778	
7144	0	32950	
7145	0	32804	
7146	0	32848	
7147	0	32888	
7148	0	32684	
7149	0	32856	
7150	0	32704	
7151	0	32848	
7152	0	32802	
7153	0	32832	
7154	0	32743	
7155	0	32780	
7156	0	32850	
7157	0	32820	
7158	0	32832	
7159	0	32756	
7160	0	32874	
7161	0	32790	
7162	0	32900	
7163	0	32748	
7164	0	32850	
7165	0	32816	
7166	0	32784	
7167	0	32836	
7168	0	32812	
7169	0	32868	
7170	0	32832	
7171	0	32812	
7172	0	32810	
7173	0	32810	
7174	0	32816	
7175	0	32844	
7176	0	32868	
7177	0	32887	
7178	0	32783	
7179	0	32807	
7180	0	32759	
7181	0	32828	
7182	0	32885	
7183	0	32896	
7184	0	32875	
7185	0	32924	
7186	0	32820	
7187	0	32814	
7188	0	32785	
7189	0	32868	
7190	0	32880	
7191	0	32854	
7192	0	32966	
7193	0	32708	
7194	0	32804	
7195	0	32720	
7196	0	32824	
7197	0	32849	
7198	0	32816	
7199	0	32896	
7200	0	32740	
7201	0	32844	
7202	0	32776	
7203	0	32788	
7204	0	32808	
7205	0	32902	
7206	0	32920	
7207	0	32920	
7208	0	32806	
7209	0	32782	
7210	0	32740	
7211	0	32824	
7212	0	32863	
7213	0	32844	
7214	0	32879	
7215	0	32676	
7216	0	32818	
7217	0	32716	
7218	0	32888	
7219	0	32820	
7220	0	32824	
7221	0	32910	
7222	0	32870	
7223	0	32890	
7224	0	32780	
7225	0	32864	
7226	0	32756	
7227	0	32876	
7228	0	32872	
7229	0	32946	
7230	0	32698	
7231	0	32806	
7232	0	32784	
7233	0	32757	
7234	0	32894	
7235	0	32828	
7236	0	32940	
7237	0	32827	
7238	0	32954	
7239	0	32751	
7240	0	32853	
7241	0	32828	
7242	0	32846	
7243	0	32864	
7244	0	32908	
7245	0	32775	
7246	0	32680	
7247	0	32839	
7248	0	32768	
7249	0	32852	
7250	0	32794	
7251	0	32960	
7252	0	32688	
7253	0	32722	
7254	0	32748	
7255	0	32780	
7256	0	32852	
7257	0	32800	
7258	0	32982	
7259	0	32700	
7260	0	32824	
7261	0	32784	
7262	0	32856	
7263	0	32857	
7264	0	32827	
7265	0	32992	
7266	0	32608	
7267	0	32895	
7268	0	32700	
7269	0	32824	
7270	0	32872	
7271	0	32822	
7272	0	32978	
7273	0	32620	
7274	0	32880	
7275	0	32656	
7276	0	32840	
7277	0	32788	
7278	0	32768	
7279	0	32928	
7280	0	32755	
7281	0	32872	
7282	0	32766	
7283	0	32784	
7284	0	32875	
7285	0	32884	
7286	0	32752	
7287	0	32958	
7288	0	32768	
7289	0	32889	
7290	0	32824	
7291	0	32952	
7292	0	32895	
7293	0	32544	
7294	0	32872	
7295	0	32620	
7296	0	32892	
7297	0	32800	
7298	0	32931	
7299	0	32956	
7300	0	32728	
7301	0	32958	
7302	0	32598	
7303	0	32972	
7304	0	32873	
7305	0	32916	
7306	0	32764	
7307	0	32761	
7308	0	32884	
7309	0	32640	
7310	0	32903	
7311	0	32844	
7312	0	32884	
7313	0	32694	
7314	0	32844	
7315	0	32864	
7316	0	32736	
7317	0	32959	
7318	0	32785	
7319	0	32972	
7320	0	32786	
7321	0	32900	
7322	0	32772	
7323	0	32752	
7324	0	32908	
7325	0	32804	
7326	0	32892	
7327	0	32750	
7328	0	32876	
7329	0	32605	
7330	0	32834	
7331	0	32902	
7332	0	32856	
7333	0	32828	
7334	0	32708	
7335	0	32820	
7336	0	32689	
7337	0	32896	
7338	0	32890	
7339	0	32848	
7340	0	32832	
7341	0	32840	
7342	0	32851	
7343	0	32724	
7344	0	32888	
7345	0	32836	
7346	0	32935	
7347	0	32710	
7348	0	32871	
7349	0	32800	
7350	0	32752	
7351	0	32974	
7352	0	32810	
7353	0	32904	
7354	0	32732	
7355	0	32864	
7356	0	32720	
7357	0	32824	
7358	0	32898	
7359	0	32838	
7360	0	32816	
7361	0	32752	
7362	0	32868	
7363	0	32710	
7364	0	32920	
7365	0	32936	
7366	0	32856	
7367	0	32824	
7368	0	32724	
7369	0	32784	
7370	0	32728	
7371	0	32983	
7372	0	32852	
7373	0	32832	
7374	0	32790	
7375	0	32776	
7376	0	32758	
7377	0	32800	
7378	0	32946	
7379	0	32802	
7380	0	32868	
7381	0	32832	
7382	0	32850	
7383	0	32846	
7384	0	32813	
7385	0	32890	
7386	0	32840	
7387	0	32815	
7388	0	32804	
7389	0	32842	
7390	0	32817	
7391	0	32911	
7392	0	32827	
7393	0	32792	
7394	0	32876	
7395	0	32834	
7396	0	32827	
7397	0	32784	
7398	0	32862	
7399	0	32804	
7400	0	32860	
7401	0	32868	
7402	0	32786	
7403	0	32828	
7404	0	32794	
7405	0	32838	
7406	0	32836	
7407	0	32868	
7408	0	32855	
7409	0	32820	
7410	0	32804	
7411	0	32800	
7412	0	32874	
7413	0	32850	
7414	0	32840	
7415	0	32836	
7416	0	32836	
7417	0	32796	
7418	0	32880	
7419	0	32831	
7420	0	32840	
7421	0	32792	
7422	0	32852	
7423	0	32856	
7424	0	32840	
7425	0	32842	
7426	0	32800	
7427	0	32794	
7428	0	32804	
7429	0	32850	
7430	0	32852	
7431	0	32816	
7432	0	32855	
7433	0	32815	
7434	0	32862	
7435	0	32800	
7436	0	32835	
7437	0	32801	
7438	0	32858	
7439	0	32855	
7440	0	32816	
7441	0	32848	
7442	0	32800	
7443	0	32848	
7444	0	32872	
7445	0	32840	
7446	0	32788	
7447	0	32834	
7448	0	32840	
7449	0	32800	
7450	0	32852	
7451	0	32809	
7452	0	32780	
7453	0	32795	
7454	0	32853	
7455	0	32864	
7456	0	32862	
7457	0	32832	
7458	0	32786	
7459	0	32859	
7460	0	32806	
7461	0	32800	
7462	0	32831	
7463	0	32822	
7464	0	32885	
7465	0	32849	
7466	0	32800	
7467	0	32832	
7468	0	32866	
7469	0	32832	
7470	0	32836	
7471	0	32800	
7472	0	32832	
7473	0	32838	
7474	0	32838	
7475	0	32880	
7476	0	32852	
7477	0	32840	
7478	0	32748	
7479	0	32804	
7480	0	32804	
7481	0	32839	
7482	0	32848	
7483	0	32842	
7484	0	32842	
7485	0	32840	
7486	0	32874	
7487	0	32804	
7488	0	32848	
7489	0	32820	
7490	0	32804	
7491	0	32857	
7492	0	32831	
7493	0	32872	
7494	0	32918	
7495	0	32694	
7496	0	32886	
7497	0	32775	
7498	0	32775	
7499	0	32884	
7500	0	32792	
7501	0	32996	
7502	0	32724	
7503	0	32846	
7504	0	32826	
7505	0	32682	
7506	0	32980	
7507	0	32698	
7508	0	32887	
7509	0	32926	
7510	0	32840	
7511	0	32694	
7512	0	32924	
7513	0	32652	
7514	0	32914	
7515	0	32800	
7516	0	32820	
7517	0	32973	
7518	0	32926	
7519	0	32716	
7520	0	32848	
7521	0	32855	
7522	0	32740	
7523	0	32996	
7524	0	32696	
7525	0	32918	
7526	0	32821	
7527	0	32978	
7528	0	32672	
7529	0	32944	
7530	0	32772	
7531	0	32736	
7532	0	32958	
7533	0	32666	
7534	0	32868	
7535	0	32802	
7536	0	32938	
7537	0	32796	
7538	0	32824	
7539	0	32844	
7540	0	32704	
7541	0	32918	
7542	0	32783	
7543	0	32854	
7544	0	32815	
7545	0	32928	
7546	0	32896	
7547	0	32676	
7548	0	32916	
7549	0	32664	
7550	0	32988	
7551	0	32718	
7552	0	32864	
7553	0	32816	
7554	0	32844	
7555	0	32932	
7556	0	32810	
7557	0	32818	
7558	0	32766	
7559	0	32812	
7560	0	32892	
7561	0	32871	
7562	0	32767	
7563	0	32853	
7564	0	32866	
7565	0	32956	
7566	0	32753	
7567	0	32879	
7568	0	32700	
7569	0	32880	
7570	0	32794	
7571	0	32878	
7572	0	32764	
7573	0	32868	
7574	0	32826	
7575	0	32944	
7576	0	32764	
7577	0	32854	
7578	0	32768	
7579	0	32886	
7580	0	32804	
7581	0	32744	
7582	0	32864	
7583	0	32772	
7584	0	32980	
7585	0	32826	
7586	0	32806	
7587	0	32796	
7588	0	32760	
7589	0	32821	
7590	0	32840	
7591	0	32746	
7592	0	32910	
7593	0	32892	
7594	0	32982	
7595	0	32816	
7596	0	32724	
7597	0	32838	
7598	0	32752	
7599	0	32899	
7600	0	32840	
7601	0	32804	
7602	0	32784	
7603	0	32956	
7604	0	32886	
7605	0	32776	
7606	0	32786	
7607	0	32806	
7608	0	32740	
7609	0	32896	
7610	0	32788	
7611	0	32829	
7612	0	32840	
7613	0	32885	
7614	0	32932	
7615	0	32788	
7616	0	32776	
7617	0	32829	
7618	0	32832	
7619	0	32864	
7620	0	32868	
7621	0	32720	
7622	0	32846	
7623	0	32869	
7624	0	32902	
7625	0	32838	
7626	0	32767	
7627	0	32842	
7628	0	32792	
7629	0	32828	
7630	0	32828	
7631	0	32744	
7632	0	32868	
7633	0	32882	
7634	0	32932	
7635	0	32764	
7636	0	32822	
7637	0	32830	
7638	0	32784	
7639	0	32752	
7640	0	32812	
7641	0	32744	
7642	0	32912	
7643	0	32968	
7644	0	32836	
7645	0	32714	
7646	0	32714	
7647	0	32870	
7648	0	32770	
7649	0	32904	
7650	0	32792	
7651	0	32812	
7652	0	32902	
7653	0	32909	
7654	0	32926	
7655	0	32688	
7656	0	32818	
7657	0	32773	
7658	0	32859	
7659	0	32823	
7660	0	32768	
7661	0	32839	
7662	0	32838	
7663	0	32936	
7664	0	32797	
7665	0	32678	
7666	0	32848	
7667	0	32688	
7668	0	32888	
7669	0	32828	
7670	0	32840	
7671	0	32788	
7672	0	32875	
7673	0	32910	
7674	0	32864	
7675	0	32760	
7676	0	32848	
7677	0	32724	
7678	0	32807	
7679	0	32840	
7680	0	32828	
7681	0	32786	
7682	0	32928	
7683	0	32800	
7684	0	32856	
7685	0	32828	
7686	0	32684	
7687	0	32851	
7688	0	32800	
7689	0	32836	
7690	0	32812	
7691	0	32770	
7692	0	32816	
7693	0	32882	
7694	0	32876	
7695	0	32831	
7696	0	32822	
7697	0	32800	
7698	0	32752	
7699	0	32786	
7700	0	32774	
7701	0	32910	
7702	0	32858	
7703	0	32866	
7704	0	32832	
7705	0	32836	
7706	0	32834	
7707	0	32738	
7708	0	32762	
7709	0	32802	
7710	0	32840	
7711	0	32828	
7712	0	32802	
7713	0	32882	
7714	0	32864	
7715	0	32815	
7716	0	32824	
7717	0	32855	
7718	0	32800	
7719	0	32820	
7720	0	32727	
7721	0	32832	
7722	0	32912	
7723	0	32880	
7724	0	32820	
7725	0	32880	
7726	0	32864	
7727	0	32868	
7728	0	32761	
7729	0	32768	
7730	0	32880	
7731	0	32828	
7732	0	32854	
7733	0	32808	
7734	0	32836	
7735	0	32863	
7736	0	32870	
7737	0	32832	
7738	0	32740	
7739	0	32796	
7740	0	32776	
7741	0	32812	
7742	0	32874	
7743	0	32864	
7744	0	32888	
7745	0	32904	
7746	0	32832	
7747	0	32816	
7748	0	32729	
7749	0	32808	
7750	0	32784	
7751	0	32816	
7752	0	32838	
7753	0	32828	
7754	0	32904	
7755	0	32853	
7756	0	32883	
7757	0	32820	
7758	0	32744	
7759	0	32790	
7760	0	32822	
7761	0	32791	
7762	0	32863	
7763	0	32896	
7764	0	32900	
7765	0	32918	
7766	0	32800	
7767	0	32820	
7768	0	32810	
7769	0	32796	
7770	0	32821	
7771	0	32684	
7772	0	32848	
7773	0	32868	
7774	0	32892	
7775	0	32880	
7776	0	32900	
7777	0	32804	
7778	0	32800	
7779	0	32812	
7780	0	32810	
7781	0	32808	
7782	0	32806	
7783	0	32924	
7784	0	32888	
7785	0	32934	
7786	0	32823	
7787	0	32754	
7788	0	32791	
7789	0	32800	
7790	0	32822	
7791	0	32778	
7792	0	32868	
7793	0	32844	
7794	0	32900	
7795	0	32904	
7796	0	32879	
7797	0	32732	
7798	0	32775	
7799	0	32808	
7800	0	32810	
7801	0	32844	
7802	0	32704	
7803	0	32816	
7804	0	32928	
7805	0	32880	
7806	0	32940	
7807	0	32644	
7808	0	32839	
7809	0	32710	
7810	0	32836	
7811	0	32799	
7812	0	32804	
7813	0	32949	
7814	0	32902	
7815	0	32928	
7816	0	32872	
7817	0	32768	
7818	0	32821	
7819	0	32784	
7820	0	32870	
7821	0	32792	
7822	0	32840	
7823	0	32796	
7824	0	32902	
7825	0	32859	
7826	0	32871	
7827	0	32732	
7828	0	32800	
7829	0	32794	
7830	0	32864	
7831	0	32780	
7832	0	32788	
7833	0	32900	
7834	0	32908	
7835	0	32908	
7836	0	32868	
7837	0	32716	
7838	0	32780	
7839	0	32788	
7840	0	32830	
7841	0	32864	
7842	0	32776	
7843	0	32904	
7844	0	32864	
7845	0	32924	
7846	0	32878	
7847	0	32791	
7848	0	32780	
7849	0	32752	
7850	0	32773	
7851	0	32864	
7852	0	32823	
7853	0	32848	
7854	0	32920	
7855	0	32858	
7856	0	32876	
7857	0	32776	
7858	0	32796	
7859	0	32784	
7860	0	32794	
7861	0	32866	
7862	0	32810	
7863	0	32832	
7864	0	32888	
7865	0	32860	
7866	0	32884	
7867	0	32809	
7868	0	32810	
7869	0	32736	
7870	0	32879	
7871	0	32780	
7872	0	32868	
7873	0	32838	
7874	0	32826	
7875	0	32852	
7876	0	32876	
7877	0	32912	
7878	0	32850	
7879	0	32768	
7880	0	32752	
7881	0	32808	
7882	0	32812	
7883	0	32904	
7884	0	32800	
7885	0	32876	
7886	0	32840	
7887	0	32848	
7888	0	32868	
7889	0	32820	
7890	0	32790	
7891	0	32850	
7892	0	32770	
7893	0	32870	
7894	0	32836	
7895	0	32810	
7896	0	32868	
7897	0	32804	
7898	0	32896	
7899	0	32852	
7900	0	32752	
7901	0	32820	
7902	0	32808	
7903	0	32831	
7904	0	32920	
7905	0	32750	
7906	0	32840	
7907	0	32784	
7908	0	32858	
7909	0	32864	
7910	0	32754	
7911	0	32800	
7912	0	32822	
7913	0	32832	
7914	0	32880	
7915	0	32820	
7916	0	32871	
7917	0	32803	
7918	0	32959	
7919	0	32874	
7920	0	32816	
7921	0	32781	
7922	0	32860	
7923	0	32784	
7924	0	32904	
7925	0	32774	
7926	0	32878	
7927	0	32859	
7928	0	32892	
7929	0	32810	
7930	0	32818	
7931	0	32756	
7932	0	32816	
7933	0	32775	
7934	0	32868	
7935	0	32856	
7936	0	32780	
7937	0	32888	
7938	0	32830	
7939	0	32904	
7940	0	32856	
7941	0	32756	
7942	0	32820	
7943	0	32756	
7944	0	32816	
7945	0	32864	
7946	0	32864	
7947	0	32923	
7948	0	32868	
7949	0	32880	
7950	0	32789	
7951	0	32731	
7952	0	32812	
7953	0	32863	
7954	0	32868	
7955	0	32893	
7956	0	32804	
7957	0	32848	
7958	0	32795	
7959	0	32852	
7960	0	32779	
7961	0	32830	
7962	0	32850	
7963	0	32736	
7964	0	32830	
7965	0	32840	
7966	0	32836	
7967	0	32854	
7968	0	32848	
7969	0	32784	
7970	0	32821	
7971	0	32832	
7972	0	32820	
7973	0	32800	
7974	0	32818	
7975	0	32848	
7976	0	32912	
7977	0	32856	
7978	0	32828	
7979	0	32789	
7980	0	32820	
7981	0	32826	
7982	0	32768	
7983	0	32830	
7984	0	32848	
7985	0	32834	
7986	0	32828	
7987	0	32836	
7988	0	32831	
7989	0	32828	
7990	0	32827	
7991	0	32832	
7992	0	32824	
7993	0	32808	
7994	0	32806	
7995	0	32828	
7996	0	32852	
7997	0	32887	
7998	0	32848	
7999	0	32784	
8000	0	32862	
8001	0	32848	
8002	0	32818	
8003	0	32792	
8004	0	32900	
8005	0	32858	
8006	0	32865	
8007	0	32836	
8008	0	32790	
8009	0	32839	
8010	0	32831	
8011	0	32830	
8012	0	32818	
8013	0	32826	
8014	0	32791	
8015	0	32840	
8016	0	32852	
8017	0	32880	
8018	0	32848	
8019	0	32800	
8020	0	32830	
8021	0	32856	
8022	0	32820	
8023	0	32848	
8024	0	32896	
8025	0	32872	
8026	0	32831	
8027	0	32820	
8028	0	32784	
8029	0	32879	
8030	0	32849	
8031	0	32894	
8032	0	32850	
8033	0	32799	
8034	0	32794	
8035	0	32815	
8036	0	32817	
8037	0	32862	
8038	0	32836	
